# OpenSignals Text File Format. Version 1
# {"00:07:80:8C:0A:39": {"position": 0, "device": "biosignalsplux", "device name": "00:07:80:8C:0A:39", "device connection": "BTH00:07:80:8C:0A:39", "sampling rate": 1000, "resolution": [16, 16], "firmware version": 776, "comments": "", "keywords": "", "mode": 0, "sync interval": 2, "date": "2023-3-17", "time": "10:59:39.520", "channels": [1, 2], "sensor": ["EMG", "EMG"], "label": ["CH1", "CH2"], "column": ["nSeq", "DI", "CH1", "CH2"], "special": [{"SpO2": [80, 40, 5, 4, 3, 3]}, {"SpO2": [80, 40, 5, 4, 3, 3]}, {"SpO2": [80, 40, 5, 4, 3, 3]}, {"SpO2": [80, 40, 5, 4, 3, 3]}, {"SpO2": [80, 40, 5, 4, 3, 3]}, {"SpO2": [80, 40, 5, 4, 3, 3]}, {"SpO2": [80, 40, 5, 4, 3, 3]}, {"SpO2": [80, 40, 5, 4, 3, 3]}], "digital IO": [0, 1], "sleeve color": ["gray", "yellow"], "convertedValues": 0}}
# EndOfHeader
0	0	32828	32694	
1	0	32846	32764	
2	0	32848	32832	
3	0	32836	32823	
4	0	32796	32792	
5	0	32776	32880	
6	0	32806	32884	
7	0	32848	32740	
8	0	32788	32770	
9	0	32894	32714	
10	0	32828	32702	
11	0	32794	32678	
12	0	32842	32794	
13	0	32864	32764	
14	0	32816	32768	
15	0	32740	32794	
16	0	32820	32710	
17	0	32852	32641	
18	0	32784	32790	
19	0	32744	32783	
20	0	32828	32668	
21	0	32800	32894	
22	0	32805	32762	
23	0	32780	32775	
24	0	32836	32858	
25	0	32864	32774	
26	0	32816	32894	
27	0	32832	32714	
28	0	32776	32730	
29	0	32804	32714	
30	0	32840	32855	
31	0	32852	32766	
32	0	32804	32687	
33	0	32868	32722	
34	0	32802	32736	
35	0	32838	32774	
36	0	32796	32680	
37	0	32820	32724	
38	0	32796	32736	
39	0	32800	32772	
40	0	32852	32828	
41	0	32800	32786	
42	0	32772	32826	
43	0	32800	32688	
44	0	32762	32743	
45	0	32732	32874	
46	0	32802	32816	
47	0	32820	32862	
48	0	32822	32824	
49	0	32884	32807	
50	0	32784	32708	
51	0	32778	32643	
52	0	32830	32687	
53	0	32768	32694	
54	0	32804	32754	
55	0	32840	32804	
56	0	32832	32726	
57	0	32832	32764	
58	0	32788	32796	
59	0	32760	32686	
60	0	32812	32734	
61	0	32870	32770	
62	0	32828	32792	
63	0	32816	32712	
64	0	32780	32743	
65	0	32810	32727	
66	0	32744	32794	
67	0	32880	32736	
68	0	32834	32775	
69	0	32824	32798	
70	0	32746	32844	
71	0	32792	32703	
72	0	32846	32710	
73	0	32896	32882	
74	0	32812	32775	
75	0	32776	32827	
76	0	32808	32772	
77	0	32830	32678	
78	0	32824	32715	
79	0	32852	32775	
80	0	32802	32770	
81	0	32864	32731	
82	0	32736	32788	
83	0	32760	32814	
84	0	32782	32644	
85	0	32770	32774	
86	0	32816	32846	
87	0	32804	32766	
88	0	32804	32746	
89	0	32812	32744	
90	0	32884	32762	
91	0	32832	32730	
92	0	32802	32708	
93	0	32804	32746	
94	0	32820	32767	
95	0	32796	32892	
96	0	32792	32808	
97	0	32808	32798	
98	0	32828	32856	
99	0	32806	32806	
100	0	32824	32676	
101	0	32852	32702	
102	0	32816	32860	
103	0	32848	32804	
104	0	32798	32802	
105	0	32838	32839	
106	0	32834	32708	
107	0	32776	32710	
108	0	32860	32820	
109	0	32821	32734	
110	0	32848	32844	
111	0	32850	32794	
112	0	32820	32818	
113	0	32860	32748	
114	0	32844	32712	
115	0	32770	32728	
116	0	32780	32800	
117	0	32852	32802	
118	0	32806	32810	
119	0	32780	32718	
120	0	32843	32792	
121	0	32774	32684	
122	0	32804	32748	
123	0	32756	32760	
124	0	32840	32752	
125	0	32784	32795	
126	0	32764	32766	
127	0	32824	32760	
128	0	32850	32702	
129	0	32808	32752	
130	0	32794	32728	
131	0	32796	32700	
132	0	32832	32788	
133	0	32816	32671	
134	0	32774	32828	
135	0	32856	32775	
136	0	32800	32768	
137	0	32824	32814	
138	0	32756	32775	
139	0	32802	32664	
140	0	32804	32661	
141	0	32782	32642	
142	0	32786	32712	
143	0	32782	32764	
144	0	32768	32724	
145	0	32782	32860	
146	0	32820	32751	
147	0	32836	32692	
148	0	32736	32638	
149	0	32796	32646	
150	0	32820	32798	
151	0	32720	32704	
152	0	32740	32647	
153	0	32680	32754	
154	0	32756	32775	
155	0	32776	32708	
156	0	32748	32614	
157	0	32800	32694	
158	0	32768	32775	
159	0	32726	32838	
160	0	32800	32784	
161	0	32838	32814	
162	0	32828	32856	
163	0	32896	32822	
164	0	32924	32812	
165	0	32884	32846	
166	0	32864	32930	
167	0	32900	32954	
168	0	32880	32910	
169	0	32904	32918	
170	0	32966	33040	
171	0	33000	32896	
172	0	32932	32852	
173	0	32884	32798	
174	0	32834	32899	
175	0	32846	32830	
176	0	32888	32840	
177	0	32882	32850	
178	0	32874	32868	
179	0	32872	32880	
180	0	32832	32870	
181	0	32806	32832	
182	0	32866	32806	
183	0	32824	32764	
184	0	32802	32582	
185	0	32732	32724	
186	0	32740	32688	
187	0	32708	32658	
188	0	32768	32612	
189	0	32754	32732	
190	0	32724	32756	
191	0	32762	32628	
192	0	32792	32724	
193	0	32806	32716	
194	0	32724	32660	
195	0	32810	32616	
196	0	32820	32660	
197	0	32748	32688	
198	0	32762	32740	
199	0	32804	32719	
200	0	32738	32698	
201	0	32852	32884	
202	0	32814	32811	
203	0	32732	32746	
204	0	32804	32884	
205	0	32804	32750	
206	0	32888	32807	
207	0	32824	32742	
208	0	32832	32844	
209	0	32808	32746	
210	0	32792	32744	
211	0	32868	32788	
212	0	32772	32794	
213	0	32784	32700	
214	0	32814	32682	
215	0	32810	32807	
216	0	32838	32800	
217	0	32812	32839	
218	0	32844	32660	
219	0	32842	32742	
220	0	32828	32794	
221	0	32800	32722	
222	0	32788	32826	
223	0	32828	32775	
224	0	32764	32684	
225	0	32772	32848	
226	0	32856	32775	
227	0	32840	32851	
228	0	32768	32724	
229	0	32854	32710	
230	0	32810	32789	
231	0	32736	32752	
232	0	32804	32746	
233	0	32804	32839	
234	0	32812	32764	
235	0	32800	32812	
236	0	32824	32612	
237	0	32868	32689	
238	0	32880	32666	
239	0	32828	32802	
240	0	32852	32736	
241	0	32800	32770	
242	0	32784	32814	
243	0	32790	32788	
244	0	32804	32865	
245	0	32808	32640	
246	0	32820	32806	
247	0	32800	32806	
248	0	32790	32748	
249	0	32840	32710	
250	0	32810	32870	
251	0	32792	32728	
252	0	32820	32798	
253	0	32840	32732	
254	0	32794	32793	
255	0	32784	32808	
256	0	32724	32666	
257	0	32814	32745	
258	0	32848	32775	
259	0	32824	32743	
260	0	32848	32758	
261	0	32868	32802	
262	0	32728	32748	
263	0	32848	32743	
264	0	32766	32786	
265	0	32808	32812	
266	0	32856	32768	
267	0	32832	32800	
268	0	32830	32806	
269	0	32854	32724	
270	0	32796	32742	
271	0	32810	32769	
272	0	32826	32666	
273	0	32792	32814	
274	0	32788	32807	
275	0	32848	32800	
276	0	32800	32816	
277	0	32798	32698	
278	0	32864	32832	
279	0	32860	32751	
280	0	32792	32740	
281	0	32804	32668	
282	0	32824	32714	
283	0	32780	32812	
284	0	32800	32746	
285	0	32838	32790	
286	0	32828	32868	
287	0	32760	32748	
288	0	32748	32854	
289	0	32758	32736	
290	0	32820	32724	
291	0	32856	32788	
292	0	32776	32775	
293	0	32864	32831	
294	0	32736	32718	
295	0	32818	32784	
296	0	32804	32786	
297	0	32876	32740	
298	0	32852	32830	
299	0	32852	32641	
300	0	32808	32692	
301	0	32816	32856	
302	0	32800	32772	
303	0	32812	32752	
304	0	32804	32800	
305	0	32818	32788	
306	0	32832	32753	
307	0	32808	32766	
308	0	32808	32839	
309	0	32788	32752	
310	0	32748	32718	
311	0	32816	32746	
312	0	32826	32852	
313	0	32784	32790	
314	0	32804	32710	
315	0	32818	32796	
316	0	32792	32690	
317	0	32820	32756	
318	0	32808	32690	
319	0	32876	32742	
320	0	32820	32846	
321	0	32820	32790	
322	0	32824	32828	
323	0	32772	32688	
324	0	32836	32736	
325	0	32804	32798	
326	0	32848	32775	
327	0	32792	32775	
328	0	32802	32678	
329	0	32824	32726	
330	0	32811	32758	
331	0	32820	32878	
332	0	32778	32680	
333	0	32782	32740	
334	0	32838	32810	
335	0	32886	32796	
336	0	32860	32775	
337	0	32816	32762	
338	0	32864	32696	
339	0	32830	32654	
340	0	32824	32662	
341	0	32780	32802	
342	0	32796	32830	
343	0	32816	32826	
344	0	32848	32824	
345	0	32768	32680	
346	0	32824	32774	
347	0	32840	32760	
348	0	32726	32830	
349	0	32810	32761	
350	0	32844	32818	
351	0	32800	32791	
352	0	32838	32708	
353	0	32780	32684	
354	0	32820	32718	
355	0	32900	32878	
356	0	32772	32772	
357	0	32752	32788	
358	0	32872	32820	
359	0	32824	32756	
360	0	32820	32711	
361	0	32816	32692	
362	0	32850	32753	
363	0	32848	32745	
364	0	32816	32888	
365	0	32746	32798	
366	0	32836	32682	
367	0	32820	32807	
368	0	32832	32823	
369	0	32746	32836	
370	0	32836	32792	
371	0	32820	32794	
372	0	32796	32858	
373	0	32794	32798	
374	0	32820	32775	
375	0	32812	32668	
376	0	32802	32762	
377	0	32804	32762	
378	0	32778	32814	
379	0	32894	32775	
380	0	32812	32740	
381	0	32904	32735	
382	0	32816	32898	
383	0	32792	32640	
384	0	32812	32756	
385	0	32800	32782	
386	0	32776	32890	
387	0	32784	32830	
388	0	32794	32676	
389	0	32848	32717	
390	0	32784	32743	
391	0	32804	32822	
392	0	32882	32711	
393	0	32836	32830	
394	0	32716	32761	
395	0	32760	32808	
396	0	32802	32700	
397	0	32886	32768	
398	0	32792	32790	
399	0	32804	32750	
400	0	32768	32724	
401	0	32848	32686	
402	0	32808	32794	
403	0	32812	32839	
404	0	32808	32697	
405	0	32816	32916	
406	0	32802	32762	
407	0	32796	32896	
408	0	32804	32790	
409	0	32804	32868	
410	0	32892	32798	
411	0	32800	32679	
412	0	32800	32654	
413	0	32756	32839	
414	0	32784	32775	
415	0	32782	32718	
416	0	32820	32677	
417	0	32808	32790	
418	0	32872	32774	
419	0	32828	32710	
420	0	32798	32775	
421	0	32816	32783	
422	0	32756	32756	
423	0	32796	32800	
424	0	32808	32830	
425	0	32768	32860	
426	0	32844	32706	
427	0	32780	32816	
428	0	32834	32796	
429	0	32822	32754	
430	0	32840	32752	
431	0	32832	32751	
432	0	32804	32788	
433	0	32794	32687	
434	0	32846	32772	
435	0	32866	32806	
436	0	32836	32714	
437	0	32888	32832	
438	0	32724	32746	
439	0	32800	32860	
440	0	32784	32660	
441	0	32748	32775	
442	0	32836	32771	
443	0	32816	32700	
444	0	32900	32812	
445	0	32804	32828	
446	0	32774	32702	
447	0	32802	32734	
448	0	32784	32822	
449	0	32832	32823	
450	0	32852	32824	
451	0	32894	32798	
452	0	32814	32674	
453	0	32804	32652	
454	0	32792	32710	
455	0	32784	32770	
456	0	32804	32807	
457	0	32832	32788	
458	0	32796	32708	
459	0	32728	32801	
460	0	32774	32704	
461	0	32776	32678	
462	0	32824	32748	
463	0	32804	32754	
464	0	32784	32862	
465	0	32852	32807	
466	0	32854	32820	
467	0	32848	32838	
468	0	32818	32824	
469	0	32832	32812	
470	0	32822	32702	
471	0	32812	32706	
472	0	32828	32834	
473	0	32838	32788	
474	0	32800	32700	
475	0	32824	32704	
476	0	32850	32774	
477	0	32776	32806	
478	0	32788	32736	
479	0	32790	32676	
480	0	32780	32805	
481	0	32792	32734	
482	0	32826	32832	
483	0	32788	32833	
484	0	32812	32774	
485	0	32856	32710	
486	0	32844	32647	
487	0	32780	32722	
488	0	32788	32814	
489	0	32860	32766	
490	0	32856	32872	
491	0	32852	32760	
492	0	32784	32676	
493	0	32766	32696	
494	0	32828	32836	
495	0	32856	32764	
496	0	32868	32810	
497	0	32824	32743	
498	0	32802	32724	
499	0	32852	32788	
500	0	32828	32806	
501	0	32812	32707	
502	0	32730	32772	
503	0	32798	32868	
504	0	32788	32742	
505	0	32864	32734	
506	0	32796	32807	
507	0	32844	32818	
508	0	32762	32698	
509	0	32776	32715	
510	0	32884	32690	
511	0	32812	32832	
512	0	32902	32775	
513	0	32842	32770	
514	0	32802	32774	
515	0	32852	32793	
516	0	32816	32722	
517	0	32792	32718	
518	0	32820	32790	
519	0	32792	32760	
520	0	32836	32834	
521	0	32796	32710	
522	0	32780	32806	
523	0	32730	32796	
524	0	32738	32798	
525	0	32846	32726	
526	0	32796	32815	
527	0	32780	32712	
528	0	32780	32820	
529	0	32804	32718	
530	0	32800	32764	
531	0	32804	32734	
532	0	32832	32810	
533	0	32858	32693	
534	0	32852	32730	
535	0	32777	32814	
536	0	32824	32764	
537	0	32824	32756	
538	0	32832	32680	
539	0	32812	32799	
540	0	32772	32698	
541	0	32822	32807	
542	0	32794	32708	
543	0	32838	32775	
544	0	32834	32804	
545	0	32768	32806	
546	0	32776	32828	
547	0	32828	32794	
548	0	32836	32844	
549	0	32780	32788	
550	0	32804	32740	
551	0	32816	32816	
552	0	32832	32698	
553	0	32800	32679	
554	0	32864	32804	
555	0	32796	32815	
556	0	32792	32820	
557	0	32834	32742	
558	0	32832	32750	
559	0	32856	32775	
560	0	32762	32708	
561	0	32752	32656	
562	0	32830	32702	
563	0	32872	32744	
564	0	32814	32852	
565	0	32764	32830	
566	0	32816	32836	
567	0	32874	32714	
568	0	32846	32816	
569	0	32728	32775	
570	0	32810	32792	
571	0	32812	32810	
572	0	32823	32674	
573	0	32836	32748	
574	0	32808	32794	
575	0	32840	32846	
576	0	32764	32723	
577	0	32820	32690	
578	0	32770	32791	
579	0	32854	32790	
580	0	32814	32694	
581	0	32732	32775	
582	0	32888	32710	
583	0	32812	32836	
584	0	32844	32692	
585	0	32740	32656	
586	0	32804	32772	
587	0	32826	32702	
588	0	32794	32816	
589	0	32866	32756	
590	0	32832	32722	
591	0	32842	32886	
592	0	32868	32800	
593	0	32840	32744	
594	0	32824	32740	
595	0	32806	32737	
596	0	32840	32775	
597	0	32832	32753	
598	0	32774	32804	
599	0	32816	32820	
600	0	32830	32718	
601	0	32826	32676	
602	0	32802	32788	
603	0	32796	32752	
604	0	32832	32828	
605	0	32752	32686	
606	0	32782	32724	
607	0	32788	32766	
608	0	32756	32818	
609	0	32812	32703	
610	0	32810	32775	
611	0	32856	32794	
612	0	32834	32706	
613	0	32772	32881	
614	0	32828	32856	
615	0	32884	32775	
616	0	32868	32820	
617	0	32836	32767	
618	0	32760	32716	
619	0	32766	32775	
620	0	32786	32718	
621	0	32782	32802	
622	0	32880	32708	
623	0	32832	32812	
624	0	32816	32850	
625	0	32816	32775	
626	0	32768	32812	
627	0	32830	32658	
628	0	32798	32694	
629	0	32852	32828	
630	0	32812	32794	
631	0	32792	32720	
632	0	32820	32834	
633	0	32764	32775	
634	0	32832	32658	
635	0	32822	32792	
636	0	32772	32826	
637	0	32844	32711	
638	0	32760	32640	
639	0	32848	32711	
640	0	32856	32807	
641	0	32736	32686	
642	0	32736	32828	
643	0	32828	32676	
644	0	32774	32720	
645	0	32849	32785	
646	0	32826	32798	
647	0	32788	32775	
648	0	32836	32788	
649	0	32800	32810	
650	0	32770	32790	
651	0	32792	32807	
652	0	32838	32668	
653	0	32776	32672	
654	0	32804	32790	
655	0	32804	32766	
656	0	32848	32696	
657	0	32868	32742	
658	0	32776	32684	
659	0	32794	32852	
660	0	32760	32758	
661	0	32880	32848	
662	0	32836	32694	
663	0	32774	32726	
664	0	32832	32820	
665	0	32832	32748	
666	0	32804	32824	
667	0	32796	32766	
668	0	32772	32716	
669	0	32831	32775	
670	0	32748	32676	
671	0	32854	32814	
672	0	32800	32716	
673	0	32852	32774	
674	0	32826	32804	
675	0	32820	32775	
676	0	32772	32807	
677	0	32790	32828	
678	0	32776	32718	
679	0	32870	32822	
680	0	32910	32660	
681	0	32732	32668	
682	0	32804	32806	
683	0	32858	32802	
684	0	32830	32800	
685	0	32808	32775	
686	0	32856	32748	
687	0	32856	32710	
688	0	32808	32852	
689	0	32792	32668	
690	0	32824	32689	
691	0	32804	32902	
692	0	32812	32839	
693	0	32818	32847	
694	0	32940	32675	
695	0	32808	32804	
696	0	32760	32728	
697	0	32836	32767	
698	0	32790	32791	
699	0	32800	32732	
700	0	32822	32796	
701	0	32848	32766	
702	0	32832	32812	
703	0	32812	32715	
704	0	32770	32760	
705	0	32788	32822	
706	0	32864	32831	
707	0	32804	32750	
708	0	32848	32710	
709	0	32828	32734	
710	0	32788	32756	
711	0	32818	32800	
712	0	32832	32794	
713	0	32791	32744	
714	0	32744	32828	
715	0	32864	32728	
716	0	32822	32815	
717	0	32852	32740	
718	0	32816	32668	
719	0	32844	32775	
720	0	32838	32868	
721	0	32768	32690	
722	0	32799	32856	
723	0	32740	32756	
724	0	32792	32764	
725	0	32796	32775	
726	0	32756	32687	
727	0	32796	32830	
728	0	32840	32804	
729	0	32832	32767	
730	0	32816	32623	
731	0	32798	32750	
732	0	32804	32846	
733	0	32776	32744	
734	0	32828	32812	
735	0	32844	32758	
736	0	32848	32760	
737	0	32800	32790	
738	0	32752	32644	
739	0	32852	32775	
740	0	32816	32812	
741	0	32826	32795	
742	0	32804	32816	
743	0	32820	32728	
744	0	32750	32844	
745	0	32788	32791	
746	0	32792	32796	
747	0	32856	32692	
748	0	32789	32764	
749	0	32848	32818	
750	0	32848	32721	
751	0	32840	32814	
752	0	32796	32740	
753	0	32848	32852	
754	0	32776	32799	
755	0	32796	32772	
756	0	32856	32726	
757	0	32840	32832	
758	0	32810	32734	
759	0	32796	32770	
760	0	32770	32692	
761	0	32778	32770	
762	0	32900	32732	
763	0	32778	32845	
764	0	32800	32668	
765	0	32844	32702	
766	0	32802	32750	
767	0	32768	32740	
768	0	32804	32775	
769	0	32770	32655	
770	0	32840	32724	
771	0	32770	32794	
772	0	32869	32804	
773	0	32802	32735	
774	0	32868	32743	
775	0	32876	32752	
776	0	32744	32760	
777	0	32832	32775	
778	0	32800	32700	
779	0	32812	32768	
780	0	32836	32734	
781	0	32860	32754	
782	0	32752	32710	
783	0	32740	32834	
784	0	32812	32860	
785	0	32884	32772	
786	0	32796	32799	
787	0	32816	32774	
788	0	32778	32828	
789	0	32852	32768	
790	0	32876	32710	
791	0	32780	32754	
792	0	32828	32708	
793	0	32741	32804	
794	0	32816	32772	
795	0	32840	32628	
796	0	32788	32682	
797	0	32788	32793	
798	0	32764	32764	
799	0	32752	32816	
800	0	32800	32800	
801	0	32798	32695	
802	0	32880	32775	
803	0	32808	32788	
804	0	32796	32738	
805	0	32816	32647	
806	0	32796	32772	
807	0	32786	32752	
808	0	32770	32784	
809	0	32852	32732	
810	0	32840	32713	
811	0	32824	32838	
812	0	32826	32839	
813	0	32788	32823	
814	0	32810	32742	
815	0	32820	32679	
816	0	32790	32798	
817	0	32782	32746	
818	0	32800	32780	
819	0	32804	32678	
820	0	32784	32796	
821	0	32804	32726	
822	0	32812	32842	
823	0	32864	32743	
824	0	32784	32798	
825	0	32708	32812	
826	0	32852	32832	
827	0	32816	32892	
828	0	32792	32743	
829	0	32802	32710	
830	0	32876	32790	
831	0	32820	32830	
832	0	32774	32726	
833	0	32834	32742	
834	0	32856	32732	
835	0	32868	32742	
836	0	32772	32742	
837	0	32775	32696	
838	0	32844	32681	
839	0	32788	32680	
840	0	32842	32818	
841	0	32772	32740	
842	0	32820	32876	
843	0	32792	32823	
844	0	32770	32860	
845	0	32828	32704	
846	0	32836	32762	
847	0	32822	32748	
848	0	32814	32818	
849	0	32872	32756	
850	0	32808	32834	
851	0	32804	32718	
852	0	32820	32688	
853	0	32826	32852	
854	0	32760	32735	
855	0	32772	32758	
856	0	32816	32838	
857	0	32852	32660	
858	0	32800	32599	
859	0	32760	32842	
860	0	32838	32792	
861	0	32776	32706	
862	0	32822	32814	
863	0	32852	32697	
864	0	32870	32657	
865	0	32814	32884	
866	0	32712	32756	
867	0	32888	32758	
868	0	32826	32818	
869	0	32816	32716	
870	0	32780	32690	
871	0	32790	32740	
872	0	32820	32766	
873	0	32810	32766	
874	0	32800	32854	
875	0	32848	32790	
876	0	32844	32647	
877	0	32868	32732	
878	0	32808	32732	
879	0	32825	32775	
880	0	32792	32868	
881	0	32816	32660	
882	0	32780	32754	
883	0	32840	32885	
884	0	32800	32820	
885	0	32844	32864	
886	0	32792	32815	
887	0	32788	32740	
888	0	32794	32844	
889	0	32862	32790	
890	0	32776	32724	
891	0	32836	32644	
892	0	32834	32775	
893	0	32820	32741	
894	0	32762	32752	
895	0	32814	32704	
896	0	32768	32724	
897	0	32816	32762	
898	0	32856	32742	
899	0	32834	32817	
900	0	32768	32694	
901	0	32810	32878	
902	0	32764	32852	
903	0	32796	32702	
904	0	32802	32902	
905	0	32794	32790	
906	0	32730	32823	
907	0	32780	32692	
908	0	32790	32636	
909	0	32800	32710	
910	0	32808	32751	
911	0	32800	32728	
912	0	32760	32658	
913	0	32826	32714	
914	0	32752	32758	
915	0	32788	32638	
916	0	32742	32630	
917	0	32756	32723	
918	0	32744	32758	
919	0	32740	32583	
920	0	32744	32706	
921	0	32848	32730	
922	0	32696	32724	
923	0	32694	32693	
924	0	32776	32754	
925	0	32730	32775	
926	0	32820	32720	
927	0	32804	32743	
928	0	32808	32825	
929	0	32808	32753	
930	0	32880	32860	
931	0	32913	32744	
932	0	32844	32858	
933	0	32860	32930	
934	0	32904	32886	
935	0	32860	32871	
936	0	32870	32775	
937	0	32908	32967	
938	0	32956	32960	
939	0	32958	32935	
940	0	32970	32830	
941	0	32868	32764	
942	0	32844	32892	
943	0	32876	32890	
944	0	32872	32882	
945	0	32820	32935	
946	0	32880	32775	
947	0	32888	33000	
948	0	32852	32948	
949	0	32794	32916	
950	0	32844	32852	
951	0	32788	32768	
952	0	32836	32647	
953	0	32744	32600	
954	0	32732	32688	
955	0	32804	32598	
956	0	32878	32710	
957	0	32708	32612	
958	0	32824	32566	
959	0	32780	32724	
960	0	32783	32604	
961	0	32754	32647	
962	0	32766	32751	
963	0	32712	32692	
964	0	32808	32718	
965	0	32774	32810	
966	0	32848	32760	
967	0	32802	32762	
968	0	32892	32840	
969	0	32788	32668	
970	0	32810	32878	
971	0	32816	32826	
972	0	32798	32756	
973	0	32828	32815	
974	0	32802	32852	
975	0	32756	32754	
976	0	32804	32878	
977	0	32832	32766	
978	0	32812	32796	
979	0	32788	32858	
980	0	32832	32721	
981	0	32798	32671	
982	0	32764	32775	
983	0	32816	32740	
984	0	32832	32774	
985	0	32856	32708	
986	0	32780	32775	
987	0	32800	32870	
988	0	32816	32759	
989	0	32808	32832	
990	0	32832	32711	
991	0	32836	32692	
992	0	32802	32732	
993	0	32826	32696	
994	0	32816	32834	
995	0	32760	32721	
996	0	32804	32820	
997	0	32798	32668	
998	0	32852	32701	
999	0	32782	32813	
1000	0	32800	32718	
1001	0	32792	32775	
1002	0	32876	32743	
1003	0	32792	32748	
1004	0	32784	32838	
1005	0	32800	32804	
1006	0	32824	32856	
1007	0	32878	32764	
1008	0	32816	32679	
1009	0	32808	32712	
1010	0	32772	32727	
1011	0	32786	32852	
1012	0	32808	32694	
1013	0	32800	32698	
1014	0	32844	32774	
1015	0	32852	32762	
1016	0	32796	32785	
1017	0	32810	32720	
1018	0	32810	32660	
1019	0	32790	32647	
1020	0	32860	32856	
1021	0	32792	32828	
1022	0	32808	32836	
1023	0	32822	32838	
1024	0	32806	32742	
1025	0	32788	32848	
1026	0	32764	32791	
1027	0	32796	32764	
1028	0	32808	32822	
1029	0	32870	32638	
1030	0	32862	32732	
1031	0	32841	32730	
1032	0	32775	32798	
1033	0	32844	32650	
1034	0	32868	32820	
1035	0	32764	32738	
1036	0	32796	32820	
1037	0	32836	32684	
1038	0	32816	32762	
1039	0	32838	32743	
1040	0	32808	32814	
1041	0	32808	32672	
1042	0	32824	32654	
1043	0	32850	32752	
1044	0	32752	32814	
1045	0	32906	32760	
1046	0	32816	32867	
1047	0	32804	32755	
1048	0	32808	32740	
1049	0	32844	32732	
1050	0	32800	32682	
1051	0	32804	32762	
1052	0	32782	32760	
1053	0	32814	32807	
1054	0	32844	32751	
1055	0	32846	32794	
1056	0	32808	32775	
1057	0	32784	32695	
1058	0	32820	32733	
1059	0	32772	32788	
1060	0	32762	32775	
1061	0	32766	32789	
1062	0	32800	32735	
1063	0	32792	32734	
1064	0	32826	32844	
1065	0	32804	32758	
1066	0	32840	32868	
1067	0	32836	32800	
1068	0	32772	32638	
1069	0	32836	32806	
1070	0	32808	32770	
1071	0	32768	32743	
1072	0	32816	32788	
1073	0	32850	32760	
1074	0	32828	32690	
1075	0	32856	32728	
1076	0	32780	32678	
1077	0	32858	32810	
1078	0	32804	32722	
1079	0	32814	32724	
1080	0	32836	32756	
1081	0	32852	32786	
1082	0	32744	32663	
1083	0	32740	32714	
1084	0	32772	32820	
1085	0	32804	32796	
1086	0	32798	32860	
1087	0	32848	32748	
1088	0	32854	32684	
1089	0	32818	32720	
1090	0	32844	32814	
1091	0	32862	32726	
1092	0	32812	32832	
1093	0	32802	32800	
1094	0	32834	32798	
1095	0	32802	32775	
1096	0	32816	32680	
1097	0	32804	32728	
1098	0	32762	32700	
1099	0	32740	32801	
1100	0	32806	32748	
1101	0	32780	32708	
1102	0	32832	32858	
1103	0	32856	32718	
1104	0	32880	32714	
1105	0	32784	32796	
1106	0	32820	32763	
1107	0	32832	32766	
1108	0	32872	32717	
1109	0	32860	32756	
1110	0	32824	32772	
1111	0	32866	32762	
1112	0	32800	32762	
1113	0	32816	32808	
1114	0	32852	32716	
1115	0	32798	32728	
1116	0	32840	32775	
1117	0	32790	32836	
1118	0	32808	32814	
1119	0	32800	32756	
1120	0	32812	32738	
1121	0	32794	32674	
1122	0	32844	32849	
1123	0	32840	32820	
1124	0	32764	32807	
1125	0	32772	32711	
1126	0	32796	32792	
1127	0	32742	32791	
1128	0	32760	32824	
1129	0	32808	32762	
1130	0	32808	32775	
1131	0	32800	32772	
1132	0	32894	32858	
1133	0	32856	32684	
1134	0	32855	32756	
1135	0	32850	32818	
1136	0	32846	32764	
1137	0	32800	32682	
1138	0	32792	32696	
1139	0	32824	32759	
1140	0	32788	32774	
1141	0	32832	32840	
1142	0	32760	32791	
1143	0	32740	32660	
1144	0	32796	32794	
1145	0	32716	32820	
1146	0	32788	32823	
1147	0	32848	32748	
1148	0	32786	32710	
1149	0	32858	32844	
1150	0	32832	32708	
1151	0	32832	32870	
1152	0	32852	32732	
1153	0	32824	32697	
1154	0	32748	32808	
1155	0	32774	32721	
1156	0	32796	32775	
1157	0	32802	32758	
1158	0	32800	32730	
1159	0	32714	32682	
1160	0	32774	32788	
1161	0	32824	32832	
1162	0	32828	32802	
1163	0	32832	32660	
1164	0	32872	32834	
1165	0	32836	32838	
1166	0	32784	32769	
1167	0	32904	32774	
1168	0	32793	32768	
1169	0	32818	32775	
1170	0	32740	32714	
1171	0	32826	32775	
1172	0	32832	32724	
1173	0	32772	32823	
1174	0	32866	32768	
1175	0	32762	32718	
1176	0	32828	32909	
1177	0	32852	32766	
1178	0	32824	32816	
1179	0	32774	32673	
1180	0	32846	32748	
1181	0	32830	32808	
1182	0	32824	32660	
1183	0	32792	32766	
1184	0	32792	32806	
1185	0	32824	32732	
1186	0	32748	32864	
1187	0	32808	32775	
1188	0	32840	32734	
1189	0	32812	32855	
1190	0	32810	32858	
1191	0	32834	32772	
1192	0	32778	32775	
1193	0	32844	32712	
1194	0	32818	32742	
1195	0	32792	32740	
1196	0	32808	32790	
1197	0	32792	32852	
1198	0	32780	32686	
1199	0	32752	32870	
1200	0	32822	32736	
1201	0	32848	32832	
1202	0	32760	32750	
1203	0	32760	32766	
1204	0	32850	32818	
1205	0	32844	32734	
1206	0	32754	32896	
1207	0	32848	32679	
1208	0	32866	32708	
1209	0	32752	32812	
1210	0	32868	32814	
1211	0	32758	32774	
1212	0	32804	32700	
1213	0	32792	32700	
1214	0	32810	32676	
1215	0	32840	32720	
1216	0	32830	32817	
1217	0	32884	32678	
1218	0	32812	32920	
1219	0	32816	32832	
1220	0	32832	32743	
1221	0	32766	32684	
1222	0	32868	32690	
1223	0	32788	32862	
1224	0	32790	32762	
1225	0	32748	32828	
1226	0	32858	32804	
1227	0	32780	32806	
1228	0	32730	32740	
1229	0	32840	32766	
1230	0	32844	32682	
1231	0	32820	32756	
1232	0	32844	32786	
1233	0	32800	32743	
1234	0	32768	32710	
1235	0	32860	32798	
1236	0	32784	32840	
1237	0	32824	32764	
1238	0	32806	32620	
1239	0	32860	32820	
1240	0	32796	32822	
1241	0	32790	32716	
1242	0	32782	32848	
1243	0	32840	32775	
1244	0	32928	32775	
1245	0	32824	32710	
1246	0	32814	32870	
1247	0	32844	32823	
1248	0	32772	32646	
1249	0	32768	32791	
1250	0	32824	32812	
1251	0	32720	32743	
1252	0	32814	32800	
1253	0	32860	32654	
1254	0	32816	32775	
1255	0	32836	32748	
1256	0	32800	32848	
1257	0	32828	32756	
1258	0	32768	32762	
1259	0	32820	32775	
1260	0	32878	32791	
1261	0	32798	32668	
1262	0	32764	32708	
1263	0	32832	32850	
1264	0	32746	32807	
1265	0	32824	32752	
1266	0	32856	32710	
1267	0	32806	32702	
1268	0	32760	32802	
1269	0	32777	32712	
1270	0	32798	32874	
1271	0	32820	32711	
1272	0	32832	32711	
1273	0	32884	32775	
1274	0	32834	32858	
1275	0	32790	32762	
1276	0	32784	32663	
1277	0	32824	32714	
1278	0	32800	32775	
1279	0	32814	32710	
1280	0	32788	32738	
1281	0	32868	32682	
1282	0	32840	32710	
1283	0	32764	32818	
1284	0	32800	32736	
1285	0	32836	32839	
1286	0	32831	32684	
1287	0	32828	32750	
1288	0	32796	32762	
1289	0	32852	32834	
1290	0	32788	32784	
1291	0	32804	32746	
1292	0	32824	32705	
1293	0	32816	32838	
1294	0	32869	32772	
1295	0	32810	32732	
1296	0	32820	32862	
1297	0	32832	32703	
1298	0	32840	32766	
1299	0	32872	32790	
1300	0	32822	32780	
1301	0	32776	32767	
1302	0	32800	32860	
1303	0	32810	32775	
1304	0	32856	32708	
1305	0	32816	32688	
1306	0	32832	32839	
1307	0	32848	32724	
1308	0	32840	32775	
1309	0	32800	32796	
1310	0	32784	32839	
1311	0	32792	32775	
1312	0	32780	32766	
1313	0	32794	32716	
1314	0	32800	32858	
1315	0	32761	32751	
1316	0	32826	32724	
1317	0	32818	32892	
1318	0	32772	32732	
1319	0	32808	32682	
1320	0	32822	32710	
1321	0	32824	32716	
1322	0	32848	32788	
1323	0	32832	32848	
1324	0	32870	32806	
1325	0	32790	32874	
1326	0	32800	32692	
1327	0	32760	32754	
1328	0	32832	32758	
1329	0	32820	32734	
1330	0	32776	32720	
1331	0	32784	32798	
1332	0	32824	32773	
1333	0	32794	32750	
1334	0	32824	32718	
1335	0	32832	32676	
1336	0	32762	32768	
1337	0	32792	32806	
1338	0	32780	32874	
1339	0	32824	32704	
1340	0	32798	32744	
1341	0	32804	32796	
1342	0	32798	32796	
1343	0	32804	32840	
1344	0	32828	32764	
1345	0	32876	32740	
1346	0	32860	32742	
1347	0	32774	32692	
1348	0	32828	32712	
1349	0	32836	32732	
1350	0	32820	32770	
1351	0	32828	32770	
1352	0	32820	32830	
1353	0	32878	32703	
1354	0	32812	32831	
1355	0	32856	32804	
1356	0	32804	32798	
1357	0	32772	32772	
1358	0	32834	32607	
1359	0	32748	32808	
1360	0	32772	32775	
1361	0	32812	32821	
1362	0	32896	32775	
1363	0	32806	32688	
1364	0	32828	32775	
1365	0	32829	32818	
1366	0	32794	32792	
1367	0	32748	32825	
1368	0	32760	32822	
1369	0	32830	32716	
1370	0	32824	32692	
1371	0	32844	32768	
1372	0	32856	32759	
1373	0	32784	32758	
1374	0	32832	32808	
1375	0	32816	32706	
1376	0	32740	32684	
1377	0	32768	32802	
1378	0	32800	32705	
1379	0	32760	32800	
1380	0	32772	32692	
1381	0	32784	32668	
1382	0	32848	32806	
1383	0	32916	32774	
1384	0	32788	32746	
1385	0	32814	32830	
1386	0	32852	32838	
1387	0	32772	32736	
1388	0	32778	32687	
1389	0	32864	32708	
1390	0	32874	32703	
1391	0	32832	32734	
1392	0	32764	32758	
1393	0	32798	32772	
1394	0	32834	32775	
1395	0	32824	32722	
1396	0	32834	32676	
1397	0	32816	32872	
1398	0	32828	32746	
1399	0	32784	32815	
1400	0	32792	32668	
1401	0	32788	32666	
1402	0	32788	32704	
1403	0	32858	32826	
1404	0	32818	32823	
1405	0	32821	32764	
1406	0	32770	32863	
1407	0	32804	32610	
1408	0	32764	32687	
1409	0	32820	32762	
1410	0	32856	32775	
1411	0	32824	32764	
1412	0	32820	32796	
1413	0	32778	32784	
1414	0	32792	32730	
1415	0	32776	32678	
1416	0	32832	32760	
1417	0	32808	32759	
1418	0	32802	32775	
1419	0	32820	32759	
1420	0	32852	32768	
1421	0	32804	32714	
1422	0	32732	32812	
1423	0	32812	32878	
1424	0	32844	32839	
1425	0	32884	32646	
1426	0	32840	32695	
1427	0	32775	32884	
1428	0	32802	32916	
1429	0	32848	32832	
1430	0	32826	32774	
1431	0	32764	32788	
1432	0	32824	32894	
1433	0	32800	32722	
1434	0	32832	32730	
1435	0	32812	32650	
1436	0	32840	32693	
1437	0	32816	32826	
1438	0	32742	32775	
1439	0	32796	32710	
1440	0	32800	32796	
1441	0	32884	32806	
1442	0	32804	32772	
1443	0	32800	32710	
1444	0	32846	32900	
1445	0	32770	32836	
1446	0	32836	32730	
1447	0	32816	32762	
1448	0	32824	32679	
1449	0	32792	32794	
1450	0	32802	32762	
1451	0	32884	32775	
1452	0	32800	32771	
1453	0	32804	32670	
1454	0	32844	32725	
1455	0	32808	32830	
1456	0	32814	32802	
1457	0	32764	32770	
1458	0	32794	32852	
1459	0	32790	32786	
1460	0	32816	32835	
1461	0	32806	32716	
1462	0	32808	32660	
1463	0	32784	32708	
1464	0	32798	32882	
1465	0	32804	32774	
1466	0	32824	32743	
1467	0	32804	32856	
1468	0	32782	32740	
1469	0	32788	32692	
1470	0	32828	32872	
1471	0	32888	32714	
1472	0	32798	32800	
1473	0	32820	32748	
1474	0	32796	32669	
1475	0	32820	32740	
1476	0	32832	32798	
1477	0	32804	32826	
1478	0	32768	32735	
1479	0	32780	32767	
1480	0	32824	32746	
1481	0	32786	32732	
1482	0	32780	32720	
1483	0	32842	32832	
1484	0	32808	32760	
1485	0	32754	32826	
1486	0	32796	32678	
1487	0	32794	32798	
1488	0	32856	32732	
1489	0	32788	32748	
1490	0	32840	32748	
1491	0	32812	32736	
1492	0	32746	32876	
1493	0	32894	32764	
1494	0	32868	32761	
1495	0	32860	32859	
1496	0	32766	32714	
1497	0	32796	32769	
1498	0	32844	32730	
1499	0	32818	32820	
1500	0	32834	32639	
1501	0	32840	32696	
1502	0	32832	32846	
1503	0	32744	32796	
1504	0	32792	32876	
1505	0	32772	32840	
1506	0	32792	32754	
1507	0	32816	32750	
1508	0	32824	32898	
1509	0	32846	32807	
1510	0	32872	32728	
1511	0	32858	32694	
1512	0	32788	32826	
1513	0	32870	32742	
1514	0	32828	32810	
1515	0	32804	32704	
1516	0	32756	32652	
1517	0	32812	32678	
1518	0	32804	32834	
1519	0	32816	32790	
1520	0	32741	32718	
1521	0	32800	32752	
1522	0	32822	32824	
1523	0	32756	32793	
1524	0	32872	32775	
1525	0	32814	32754	
1526	0	32814	32772	
1527	0	32870	32688	
1528	0	32828	32683	
1529	0	32804	32725	
1530	0	32816	32791	
1531	0	32796	32838	
1532	0	32826	32796	
1533	0	32810	32726	
1534	0	32824	32688	
1535	0	32772	32743	
1536	0	32830	32809	
1537	0	32850	32752	
1538	0	32810	32794	
1539	0	32866	32704	
1540	0	32746	32724	
1541	0	32800	32652	
1542	0	32836	32775	
1543	0	32780	32903	
1544	0	32788	32775	
1545	0	32774	32762	
1546	0	32844	32758	
1547	0	32776	32775	
1548	0	32788	32788	
1549	0	32760	32757	
1550	0	32836	32636	
1551	0	32804	32744	
1552	0	32868	32754	
1553	0	32798	32810	
1554	0	32800	32894	
1555	0	32814	32646	
1556	0	32836	32622	
1557	0	32788	32814	
1558	0	32756	32743	
1559	0	32840	32864	
1560	0	32832	32736	
1561	0	32800	32732	
1562	0	32766	32838	
1563	0	32820	32850	
1564	0	32756	32818	
1565	0	32796	32820	
1566	0	32876	32752	
1567	0	32816	32732	
1568	0	32794	32816	
1569	0	32800	32716	
1570	0	32782	32828	
1571	0	32832	32743	
1572	0	32864	32770	
1573	0	32828	32738	
1574	0	32792	32764	
1575	0	32824	32736	
1576	0	32818	32732	
1577	0	32788	32700	
1578	0	32788	32742	
1579	0	32792	32686	
1580	0	32820	32858	
1581	0	32828	32734	
1582	0	32808	32774	
1583	0	32770	32775	
1584	0	32860	32709	
1585	0	32816	32802	
1586	0	32800	32846	
1587	0	32816	32826	
1588	0	32788	32736	
1589	0	32812	32692	
1590	0	32792	32754	
1591	0	32758	32816	
1592	0	32808	32828	
1593	0	32902	32696	
1594	0	32852	32726	
1595	0	32844	32824	
1596	0	32804	32718	
1597	0	32774	32808	
1598	0	32832	32724	
1599	0	32816	32682	
1600	0	32812	32854	
1601	0	32830	32844	
1602	0	32760	32774	
1603	0	32808	32804	
1604	0	32764	32670	
1605	0	32824	32860	
1606	0	32808	32796	
1607	0	32804	32832	
1608	0	32804	32654	
1609	0	32800	32838	
1610	0	32838	32812	
1611	0	32896	32775	
1612	0	32800	32711	
1613	0	32772	32720	
1614	0	32772	32804	
1615	0	32824	32760	
1616	0	32816	32694	
1617	0	32782	32822	
1618	0	32824	32743	
1619	0	32750	32806	
1620	0	32804	32657	
1621	0	32892	32844	
1622	0	32796	32828	
1623	0	32768	32812	
1624	0	32794	32766	
1625	0	32800	32775	
1626	0	32790	32816	
1627	0	32836	32794	
1628	0	32820	32816	
1629	0	32794	32704	
1630	0	32850	32700	
1631	0	32744	32831	
1632	0	32820	32742	
1633	0	32866	32844	
1634	0	32844	32718	
1635	0	32802	32696	
1636	0	32838	32774	
1637	0	32782	32836	
1638	0	32790	32818	
1639	0	32848	32678	
1640	0	32834	32752	
1641	0	32836	32816	
1642	0	32908	32802	
1643	0	32798	32732	
1644	0	32825	32706	
1645	0	32830	32713	
1646	0	32846	32846	
1647	0	32846	32807	
1648	0	32774	32826	
1649	0	32808	32704	
1650	0	32840	32718	
1651	0	32828	32775	
1652	0	32828	32742	
1653	0	32808	32792	
1654	0	32770	32802	
1655	0	32840	32677	
1656	0	32796	32788	
1657	0	32766	32886	
1658	0	32800	32784	
1659	0	32828	32740	
1660	0	32844	32750	
1661	0	32828	32702	
1662	0	32842	32720	
1663	0	32810	32806	
1664	0	32796	32752	
1665	0	32712	32702	
1666	0	32780	32846	
1667	0	32808	32710	
1668	0	32794	32836	
1669	0	32740	32706	
1670	0	32828	32716	
1671	0	32828	32772	
1672	0	32832	32734	
1673	0	32816	32732	
1674	0	32852	32664	
1675	0	32804	32762	
1676	0	32818	32815	
1677	0	32808	32828	
1678	0	32846	32712	
1679	0	32856	32871	
1680	0	32746	32718	
1681	0	32750	32811	
1682	0	32761	32711	
1683	0	32828	32704	
1684	0	32884	32794	
1685	0	32820	32864	
1686	0	32788	32807	
1687	0	32774	32688	
1688	0	32788	32830	
1689	0	32804	32806	
1690	0	32788	32775	
1691	0	32792	32662	
1692	0	32764	32814	
1693	0	32804	32786	
1694	0	32772	32660	
1695	0	32916	32814	
1696	0	32770	32814	
1697	0	32816	32743	
1698	0	32770	32796	
1699	0	32820	32695	
1700	0	32772	32812	
1701	0	32810	32792	
1702	0	32812	32890	
1703	0	32736	32828	
1704	0	32772	32792	
1705	0	32798	32762	
1706	0	32760	32764	
1707	0	32812	32790	
1708	0	32824	32743	
1709	0	32836	32766	
1710	0	32842	32708	
1711	0	32822	32844	
1712	0	32832	32766	
1713	0	32824	32798	
1714	0	32868	32734	
1715	0	32794	32735	
1716	0	32808	32751	
1717	0	32832	32882	
1718	0	32880	32720	
1719	0	32844	32668	
1720	0	32784	32708	
1721	0	32817	32741	
1722	0	32808	32770	
1723	0	32744	32682	
1724	0	32849	32710	
1725	0	32832	32902	
1726	0	32824	32792	
1727	0	32793	32892	
1728	0	32792	32758	
1729	0	32784	32807	
1730	0	32828	32874	
1731	0	32808	32768	
1732	0	32928	32750	
1733	0	32778	32734	
1734	0	32768	32759	
1735	0	32812	32748	
1736	0	32792	32774	
1737	0	32734	32742	
1738	0	32832	32679	
1739	0	32856	32662	
1740	0	32784	32716	
1741	0	32832	32746	
1742	0	32758	32646	
1743	0	32734	32775	
1744	0	32756	32788	
1745	0	32748	32820	
1746	0	32884	32708	
1747	0	32732	32742	
1748	0	32760	32648	
1749	0	32796	32800	
1750	0	32802	32710	
1751	0	32798	32716	
1752	0	32860	32708	
1753	0	32740	32647	
1754	0	32774	32536	
1755	0	32764	32751	
1756	0	32684	32688	
1757	0	32740	32772	
1758	0	32766	32798	
1759	0	32725	32687	
1760	0	32698	32730	
1761	0	32762	32784	
1762	0	32712	32742	
1763	0	32864	32810	
1764	0	32810	32812	
1765	0	32782	32746	
1766	0	32850	32840	
1767	0	32872	32830	
1768	0	32864	32814	
1769	0	32845	32862	
1770	0	32894	32756	
1771	0	32952	32788	
1772	0	32930	32970	
1773	0	32964	33024	
1774	0	32968	32906	
1775	0	33020	32862	
1776	0	32878	32858	
1777	0	32940	32884	
1778	0	32912	32876	
1779	0	32904	32775	
1780	0	32916	32838	
1781	0	32840	32862	
1782	0	32874	32816	
1783	0	32922	32876	
1784	0	32802	32889	
1785	0	32774	32818	
1786	0	32868	32849	
1787	0	32824	32775	
1788	0	32762	32750	
1789	0	32760	32670	
1790	0	32768	32708	
1791	0	32724	32676	
1792	0	32746	32551	
1793	0	32750	32569	
1794	0	32746	32719	
1795	0	32744	32586	
1796	0	32680	32734	
1797	0	32720	32586	
1798	0	32794	32800	
1799	0	32849	32666	
1800	0	32816	32724	
1801	0	32756	32636	
1802	0	32802	32710	
1803	0	32836	32743	
1804	0	32896	32882	
1805	0	32780	32886	
1806	0	32808	32664	
1807	0	32892	32817	
1808	0	32834	32786	
1809	0	32820	32840	
1810	0	32800	32659	
1811	0	32924	32852	
1812	0	32818	32764	
1813	0	32802	32775	
1814	0	32868	32724	
1815	0	32748	32706	
1816	0	32850	32880	
1817	0	32808	32788	
1818	0	32798	32740	
1819	0	32778	32568	
1820	0	32782	32710	
1821	0	32836	32724	
1822	0	32856	32766	
1823	0	32764	32866	
1824	0	32782	32734	
1825	0	32784	32840	
1826	0	32852	32834	
1827	0	32792	32871	
1828	0	32820	32743	
1829	0	32836	32676	
1830	0	32804	32807	
1831	0	32792	32774	
1832	0	32810	32712	
1833	0	32824	32743	
1834	0	32900	32830	
1835	0	32878	32711	
1836	0	32816	32720	
1837	0	32800	32743	
1838	0	32784	32698	
1839	0	32777	32622	
1840	0	32884	32782	
1841	0	32816	32734	
1842	0	32820	32742	
1843	0	32798	32902	
1844	0	32806	32796	
1845	0	32800	32762	
1846	0	32858	32884	
1847	0	32724	32750	
1848	0	32836	32814	
1849	0	32824	32766	
1850	0	32788	32696	
1851	0	32798	32768	
1852	0	32820	32818	
1853	0	32756	32671	
1854	0	32746	32732	
1855	0	32824	32632	
1856	0	32794	32695	
1857	0	32860	32662	
1858	0	32816	32816	
1859	0	32864	32764	
1860	0	32868	32793	
1861	0	32820	32692	
1862	0	32796	32804	
1863	0	32824	32834	
1864	0	32772	32852	
1865	0	32844	32760	
1866	0	32820	32758	
1867	0	32844	32802	
1868	0	32820	32831	
1869	0	32800	32842	
1870	0	32808	32708	
1871	0	32818	32712	
1872	0	32856	32598	
1873	0	32816	32752	
1874	0	32832	32796	
1875	0	32742	32807	
1876	0	32808	32763	
1877	0	32770	32865	
1878	0	32758	32844	
1879	0	32750	32770	
1880	0	32788	32746	
1881	0	32776	32788	
1882	0	32904	32775	
1883	0	32794	32804	
1884	0	32876	32750	
1885	0	32824	32700	
1886	0	32840	32700	
1887	0	32860	32810	
1888	0	32856	32734	
1889	0	32828	32727	
1890	0	32804	32863	
1891	0	32860	32727	
1892	0	32876	32712	
1893	0	32776	32828	
1894	0	32736	32782	
1895	0	32872	32770	
1896	0	32800	32806	
1897	0	32792	32674	
1898	0	32832	32868	
1899	0	32778	32794	
1900	0	32816	32796	
1901	0	32854	32641	
1902	0	32896	32759	
1903	0	32812	32834	
1904	0	32774	32774	
1905	0	32800	32760	
1906	0	32840	32674	
1907	0	32798	32652	
1908	0	32716	32770	
1909	0	32820	32858	
1910	0	32846	32734	
1911	0	32796	32823	
1912	0	32760	32804	
1913	0	32816	32820	
1914	0	32812	32792	
1915	0	32820	32761	
1916	0	32768	32770	
1917	0	32834	32877	
1918	0	32788	32660	
1919	0	32884	32784	
1920	0	32816	32642	
1921	0	32824	32670	
1922	0	32824	32751	
1923	0	32760	32775	
1924	0	32872	32871	
1925	0	32804	32806	
1926	0	32780	32703	
1927	0	32860	32766	
1928	0	32820	32890	
1929	0	32792	32746	
1930	0	32832	32775	
1931	0	32862	32804	
1932	0	32836	32660	
1933	0	32792	32762	
1934	0	32816	32738	
1935	0	32792	32800	
1936	0	32788	32738	
1937	0	32820	32772	
1938	0	32844	32852	
1939	0	32802	32682	
1940	0	32824	32682	
1941	0	32780	32871	
1942	0	32816	32768	
1943	0	32764	32698	
1944	0	32840	32766	
1945	0	32748	32791	
1946	0	32852	32754	
1947	0	32804	32794	
1948	0	32816	32724	
1949	0	32817	32810	
1950	0	32808	32766	
1951	0	32766	32742	
1952	0	32856	32682	
1953	0	32814	32808	
1954	0	32832	32838	
1955	0	32740	32900	
1956	0	32848	32775	
1957	0	32840	32700	
1958	0	32804	32838	
1959	0	32822	32792	
1960	0	32848	32639	
1961	0	32834	32760	
1962	0	32780	32726	
1963	0	32808	32806	
1964	0	32788	32721	
1965	0	32844	32806	
1966	0	32838	32785	
1967	0	32794	32658	
1968	0	32794	32726	
1969	0	32804	32748	
1970	0	32852	32840	
1971	0	32796	32903	
1972	0	32816	32704	
1973	0	32820	32764	
1974	0	32760	32774	
1975	0	32768	32784	
1976	0	32860	32772	
1977	0	32818	32724	
1978	0	32800	32784	
1979	0	32832	32689	
1980	0	32876	32768	
1981	0	32872	32736	
1982	0	32778	32750	
1983	0	32788	32806	
1984	0	32756	32800	
1985	0	32768	32799	
1986	0	32734	32750	
1987	0	32706	32696	
1988	0	32750	32804	
1989	0	32800	32775	
1990	0	32856	32775	
1991	0	32840	32794	
1992	0	32800	32668	
1993	0	32792	32853	
1994	0	32844	32791	
1995	0	32846	32828	
1996	0	32840	32828	
1997	0	32860	32688	
1998	0	32828	32855	
1999	0	32832	32850	
2000	0	32848	32687	
2001	0	32866	32737	
2002	0	32814	32770	
2003	0	32896	32734	
2004	0	32892	32735	
2005	0	32854	32775	
2006	0	32800	32766	
2007	0	32868	32727	
2008	0	32820	32782	
2009	0	32744	32888	
2010	0	32804	32798	
2011	0	32788	32792	
2012	0	32702	32762	
2013	0	32748	32772	
2014	0	32712	32688	
2015	0	32778	32822	
2016	0	32820	32790	
2017	0	32812	32686	
2018	0	32830	32740	
2019	0	32790	32758	
2020	0	32884	32899	
2021	0	32880	32586	
2022	0	32894	32696	
2023	0	32872	32743	
2024	0	32900	32804	
2025	0	32852	32815	
2026	0	32814	32788	
2027	0	32868	32762	
2028	0	32846	32740	
2029	0	32896	32774	
2030	0	32876	32752	
2031	0	32822	32718	
2032	0	32806	32794	
2033	0	32888	32760	
2034	0	32814	32740	
2035	0	32790	32705	
2036	0	32828	32796	
2037	0	32836	32775	
2038	0	32808	32788	
2039	0	32764	32692	
2040	0	32724	32752	
2041	0	32676	32710	
2042	0	32764	32810	
2043	0	32768	32699	
2044	0	32800	32695	
2045	0	32824	32796	
2046	0	32804	32762	
2047	0	32760	32740	
2048	0	32858	32746	
2049	0	32844	32775	
2050	0	32828	32808	
2051	0	32792	32702	
2052	0	32872	32742	
2053	0	32812	32816	
2054	0	32756	32798	
2055	0	32852	32886	
2056	0	32820	32712	
2057	0	32886	32880	
2058	0	32920	32620	
2059	0	32804	32836	
2060	0	32816	32720	
2061	0	32810	32736	
2062	0	32756	32788	
2063	0	32784	32743	
2064	0	32844	32820	
2065	0	32804	32798	
2066	0	32764	32799	
2067	0	32860	32807	
2068	0	32824	32655	
2069	0	32872	32828	
2070	0	32780	32758	
2071	0	32788	32792	
2072	0	32828	32734	
2073	0	32808	32775	
2074	0	32768	32788	
2075	0	32770	32800	
2076	0	32774	32640	
2077	0	32774	32775	
2078	0	32760	32708	
2079	0	32792	32768	
2080	0	32746	32672	
2081	0	32808	32634	
2082	0	32776	32743	
2083	0	32810	32854	
2084	0	32832	32903	
2085	0	32764	32724	
2086	0	32800	32697	
2087	0	32806	32724	
2088	0	32790	32798	
2089	0	32884	32775	
2090	0	32884	32742	
2091	0	32804	32768	
2092	0	32836	32775	
2093	0	32848	32792	
2094	0	32820	32796	
2095	0	32858	32728	
2096	0	32834	32774	
2097	0	32868	32748	
2098	0	32840	32806	
2099	0	32800	32710	
2100	0	32820	32680	
2101	0	32820	32698	
2102	0	32828	32775	
2103	0	32812	32864	
2104	0	32804	32754	
2105	0	32820	32810	
2106	0	32832	32724	
2107	0	32788	32724	
2108	0	32826	32646	
2109	0	32792	32802	
2110	0	32782	32686	
2111	0	32780	32730	
2112	0	32858	32822	
2113	0	32870	32746	
2114	0	32852	32636	
2115	0	32810	32723	
2116	0	32786	32750	
2117	0	32832	32884	
2118	0	32888	32670	
2119	0	32846	32820	
2120	0	32780	32801	
2121	0	32736	32870	
2122	0	32744	32784	
2123	0	32736	32748	
2124	0	32788	32903	
2125	0	32792	32814	
2126	0	32776	32838	
2127	0	32792	32764	
2128	0	32818	32884	
2129	0	32920	32835	
2130	0	32836	32734	
2131	0	32816	32856	
2132	0	32782	32740	
2133	0	32732	32702	
2134	0	32770	32678	
2135	0	32740	32689	
2136	0	32850	32738	
2137	0	32816	32786	
2138	0	32854	32588	
2139	0	32744	32760	
2140	0	32892	32756	
2141	0	32836	32839	
2142	0	32852	32790	
2143	0	32822	32682	
2144	0	32816	32806	
2145	0	32768	32813	
2146	0	32810	32678	
2147	0	32632	32820	
2148	0	32670	32836	
2149	0	32808	32775	
2150	0	32798	32828	
2151	0	32848	32712	
2152	0	32942	32848	
2153	0	32848	32882	
2154	0	32826	32892	
2155	0	32874	32862	
2156	0	32908	32828	
2157	0	32872	32751	
2158	0	32772	32694	
2159	0	32844	32715	
2160	0	32800	32814	
2161	0	32776	32760	
2162	0	32796	32646	
2163	0	32820	32775	
2164	0	32810	32849	
2165	0	32798	32760	
2166	0	32840	32738	
2167	0	32800	32620	
2168	0	32846	32748	
2169	0	32904	32612	
2170	0	32842	32775	
2171	0	32774	32800	
2172	0	32866	32742	
2173	0	32772	32775	
2174	0	32844	32698	
2175	0	32844	32802	
2176	0	32794	32791	
2177	0	32854	32775	
2178	0	32784	32730	
2179	0	32844	32748	
2180	0	32752	32654	
2181	0	32744	32789	
2182	0	32790	32800	
2183	0	32744	32658	
2184	0	32792	32755	
2185	0	32744	32748	
2186	0	32820	32784	
2187	0	32824	32895	
2188	0	32822	32852	
2189	0	32814	32790	
2190	0	32798	32842	
2191	0	32848	32702	
2192	0	32862	32796	
2193	0	32844	32775	
2194	0	32896	32678	
2195	0	32840	32727	
2196	0	32868	32836	
2197	0	32896	32704	
2198	0	32814	32754	
2199	0	32772	32656	
2200	0	32712	32764	
2201	0	32852	32796	
2202	0	32802	32673	
2203	0	32816	32848	
2204	0	32840	32871	
2205	0	32782	32772	
2206	0	32878	32824	
2207	0	32808	32775	
2208	0	32764	32678	
2209	0	32808	32740	
2210	0	32866	32742	
2211	0	32858	32673	
2212	0	32760	32767	
2213	0	32780	32644	
2214	0	32766	32743	
2215	0	32900	32775	
2216	0	32812	32716	
2217	0	32716	32816	
2218	0	32822	32836	
2219	0	32834	32668	
2220	0	32804	32760	
2221	0	32812	32792	
2222	0	32846	32768	
2223	0	32754	32700	
2224	0	32752	32728	
2225	0	32812	32768	
2226	0	32904	32686	
2227	0	32792	32748	
2228	0	32800	32844	
2229	0	32774	32706	
2230	0	32760	32748	
2231	0	32760	32652	
2232	0	32836	32775	
2233	0	32772	32724	
2234	0	32834	32740	
2235	0	32872	32762	
2236	0	32794	32855	
2237	0	32836	32816	
2238	0	32862	32768	
2239	0	32836	32772	
2240	0	32804	32706	
2241	0	32812	32756	
2242	0	32836	32816	
2243	0	32812	32920	
2244	0	32800	32903	
2245	0	32825	32794	
2246	0	32734	32872	
2247	0	32740	32850	
2248	0	32756	32730	
2249	0	32804	32772	
2250	0	32840	32775	
2251	0	32812	32726	
2252	0	32826	32775	
2253	0	32830	32668	
2254	0	32824	32748	
2255	0	32872	32786	
2256	0	32842	32608	
2257	0	32888	32716	
2258	0	32804	32702	
2259	0	32800	32807	
2260	0	32834	32832	
2261	0	32864	32800	
2262	0	32744	32814	
2263	0	32698	32724	
2264	0	32782	32770	
2265	0	32864	32710	
2266	0	32788	32672	
2267	0	32820	32675	
2268	0	32858	32700	
2269	0	32784	32760	
2270	0	32788	32663	
2271	0	32868	32806	
2272	0	32804	32830	
2273	0	32756	32716	
2274	0	32752	32775	
2275	0	32750	32823	
2276	0	32746	32714	
2277	0	32780	32752	
2278	0	32790	32684	
2279	0	32816	32770	
2280	0	32872	32770	
2281	0	32800	32826	
2282	0	32880	32786	
2283	0	32924	32854	
2284	0	32930	32775	
2285	0	32902	32879	
2286	0	32824	32766	
2287	0	32888	32720	
2288	0	32828	32775	
2289	0	32796	32764	
2290	0	32876	32699	
2291	0	32836	32647	
2292	0	32824	32756	
2293	0	32828	32729	
2294	0	32784	32666	
2295	0	32812	32832	
2296	0	32770	32739	
2297	0	32780	32739	
2298	0	32736	32772	
2299	0	32682	32652	
2300	0	32780	32758	
2301	0	32728	32729	
2302	0	32824	32703	
2303	0	32812	32854	
2304	0	32732	32818	
2305	0	32688	32759	
2306	0	32730	32716	
2307	0	32788	32775	
2308	0	32784	32806	
2309	0	32792	32867	
2310	0	32836	32743	
2311	0	32810	32804	
2312	0	32832	32830	
2313	0	32798	32850	
2314	0	32800	32858	
2315	0	32800	32710	
2316	0	32826	32860	
2317	0	32814	32794	
2318	0	32856	32678	
2319	0	32720	32806	
2320	0	32804	32724	
2321	0	32768	32692	
2322	0	32820	32654	
2323	0	32800	32743	
2324	0	32900	32728	
2325	0	32760	32694	
2326	0	32808	32730	
2327	0	32784	32743	
2328	0	32844	32792	
2329	0	32864	32860	
2330	0	32814	32854	
2331	0	32760	32854	
2332	0	32772	32780	
2333	0	32760	32894	
2334	0	32886	32928	
2335	0	32794	32836	
2336	0	32904	32807	
2337	0	32924	32732	
2338	0	32804	32666	
2339	0	32812	32747	
2340	0	32864	32587	
2341	0	32796	32663	
2342	0	32732	32604	
2343	0	32768	32744	
2344	0	32804	32764	
2345	0	32810	32758	
2346	0	32776	32802	
2347	0	32800	32654	
2348	0	32874	32852	
2349	0	32832	32768	
2350	0	32904	32743	
2351	0	32874	32806	
2352	0	32794	32806	
2353	0	32860	32736	
2354	0	32776	32732	
2355	0	32832	32826	
2356	0	32760	32702	
2357	0	32804	32758	
2358	0	32838	32664	
2359	0	32830	32735	
2360	0	32804	32768	
2361	0	32856	32658	
2362	0	32846	32868	
2363	0	32810	32900	
2364	0	32856	32728	
2365	0	32816	32766	
2366	0	32720	32796	
2367	0	32768	32574	
2368	0	32728	32642	
2369	0	32750	32679	
2370	0	32836	32644	
2371	0	32864	32716	
2372	0	32884	32746	
2373	0	32775	32828	
2374	0	32868	32878	
2375	0	32742	32834	
2376	0	32840	33004	
2377	0	32836	32945	
2378	0	32812	32870	
2379	0	32804	32942	
2380	0	32848	32854	
2381	0	32748	32828	
2382	0	32753	32884	
2383	0	32784	32775	
2384	0	32804	32708	
2385	0	32884	32770	
2386	0	32860	32766	
2387	0	32860	32700	
2388	0	32855	32688	
2389	0	32822	32748	
2390	0	32890	32759	
2391	0	32818	32738	
2392	0	32824	32806	
2393	0	32808	32686	
2394	0	32832	32764	
2395	0	32808	32718	
2396	0	32770	32678	
2397	0	32876	32728	
2398	0	32844	32623	
2399	0	32834	32770	
2400	0	32756	32802	
2401	0	32820	32762	
2402	0	32806	32830	
2403	0	32764	32772	
2404	0	32762	32736	
2405	0	32776	32788	
2406	0	32812	32799	
2407	0	32774	32772	
2408	0	32784	32748	
2409	0	32740	32754	
2410	0	32724	32770	
2411	0	32784	32686	
2412	0	32772	32762	
2413	0	32856	32808	
2414	0	32896	32762	
2415	0	32892	32725	
2416	0	32854	32809	
2417	0	32852	32846	
2418	0	32846	32666	
2419	0	32772	32710	
2420	0	32772	32734	
2421	0	32796	32635	
2422	0	32750	32784	
2423	0	32684	32705	
2424	0	32840	32679	
2425	0	32878	32696	
2426	0	32794	32761	
2427	0	32868	32824	
2428	0	32806	32734	
2429	0	32888	32772	
2430	0	32840	32888	
2431	0	32872	32748	
2432	0	32808	32884	
2433	0	32706	32945	
2434	0	32764	32798	
2435	0	32752	32849	
2436	0	32764	32914	
2437	0	32692	32754	
2438	0	32792	32928	
2439	0	32802	32888	
2440	0	32768	32684	
2441	0	32860	32690	
2442	0	32704	32722	
2443	0	32612	32756	
2444	0	32628	32804	
2445	0	32740	32795	
2446	0	32736	32710	
2447	0	32756	32768	
2448	0	32748	32728	
2449	0	32856	32567	
2450	0	32924	32719	
2451	0	32986	32708	
2452	0	32980	32550	
2453	0	33058	32676	
2454	0	32988	32646	
2455	0	33038	32528	
2456	0	33014	32714	
2457	0	32956	32748	
2458	0	32948	32812	
2459	0	32908	32916	
2460	0	32968	32949	
2461	0	32888	32876	
2462	0	32800	33078	
2463	0	32834	33052	
2464	0	32800	32879	
2465	0	32852	32908	
2466	0	32820	32919	
2467	0	32764	32774	
2468	0	32696	32788	
2469	0	32612	32705	
2470	0	32768	32734	
2471	0	32780	32772	
2472	0	32760	32684	
2473	0	32744	32740	
2474	0	32740	32670	
2475	0	32756	32628	
2476	0	32728	32680	
2477	0	32740	32762	
2478	0	32756	32632	
2479	0	32780	32774	
2480	0	32716	32786	
2481	0	32756	32581	
2482	0	32708	32826	
2483	0	32814	32711	
2484	0	32788	32775	
2485	0	32706	32751	
2486	0	32696	32676	
2487	0	32799	32670	
2488	0	32780	32814	
2489	0	32848	32785	
2490	0	32760	32588	
2491	0	32772	32806	
2492	0	32812	32736	
2493	0	32876	32734	
2494	0	32844	32768	
2495	0	32788	32742	
2496	0	32852	32808	
2497	0	32848	32806	
2498	0	32860	32711	
2499	0	32844	32791	
2500	0	32816	32767	
2501	0	32848	32741	
2502	0	32884	32847	
2503	0	32880	32820	
2504	0	32810	32701	
2505	0	32850	32742	
2506	0	32828	32736	
2507	0	32810	32775	
2508	0	32756	32742	
2509	0	32868	32806	
2510	0	32836	32766	
2511	0	32824	32812	
2512	0	32884	32831	
2513	0	32800	32710	
2514	0	32804	32794	
2515	0	32856	32766	
2516	0	32874	32752	
2517	0	32792	32775	
2518	0	32840	32724	
2519	0	32864	32686	
2520	0	32776	32735	
2521	0	32820	32842	
2522	0	32849	32764	
2523	0	32794	32760	
2524	0	32768	32822	
2525	0	32772	32769	
2526	0	32832	32688	
2527	0	32790	32852	
2528	0	32792	32756	
2529	0	32824	32686	
2530	0	32860	32714	
2531	0	32840	32762	
2532	0	32828	32660	
2533	0	32826	32810	
2534	0	32864	32768	
2535	0	32780	32710	
2536	0	32824	32658	
2537	0	32768	32764	
2538	0	32864	32824	
2539	0	32772	32752	
2540	0	32768	32852	
2541	0	32820	32865	
2542	0	32812	32694	
2543	0	32844	32839	
2544	0	32766	32827	
2545	0	32792	32824	
2546	0	32736	32754	
2547	0	32752	32838	
2548	0	32870	32740	
2549	0	32816	32620	
2550	0	32788	32756	
2551	0	32780	32708	
2552	0	32852	32775	
2553	0	32782	32644	
2554	0	32712	32798	
2555	0	32798	32714	
2556	0	32782	32607	
2557	0	32810	32758	
2558	0	32832	32694	
2559	0	32830	32794	
2560	0	32800	32738	
2561	0	32760	32662	
2562	0	32748	32748	
2563	0	32756	32664	
2564	0	32804	32720	
2565	0	32816	32798	
2566	0	32766	32715	
2567	0	32768	32670	
2568	0	32742	32626	
2569	0	32766	32704	
2570	0	32748	32744	
2571	0	32740	32704	
2572	0	32794	32745	
2573	0	32704	32740	
2574	0	32752	32719	
2575	0	32804	32740	
2576	0	32834	32775	
2577	0	32874	32766	
2578	0	32860	32875	
2579	0	32868	32832	
2580	0	32880	32980	
2581	0	32928	32842	
2582	0	32936	32982	
2583	0	32944	32924	
2584	0	32916	32998	
2585	0	32968	32912	
2586	0	32952	32901	
2587	0	32948	32912	
2588	0	32910	32858	
2589	0	32880	32804	
2590	0	32832	32935	
2591	0	32880	32946	
2592	0	32844	32774	
2593	0	32884	32958	
2594	0	32904	32860	
2595	0	32886	32920	
2596	0	32876	32852	
2597	0	32836	32688	
2598	0	32792	32766	
2599	0	32800	32756	
2600	0	32744	32571	
2601	0	32760	32606	
2602	0	32734	32610	
2603	0	32748	32456	
2604	0	32748	32647	
2605	0	32720	32596	
2606	0	32726	32574	
2607	0	32738	32750	
2608	0	32734	32710	
2609	0	32757	32732	
2610	0	32776	32800	
2611	0	32844	32810	
2612	0	32824	32650	
2613	0	32784	32742	
2614	0	32740	32740	
2615	0	32816	32641	
2616	0	32832	32830	
2617	0	32820	32898	
2618	0	32798	32858	
2619	0	32896	32884	
2620	0	32800	32856	
2621	0	32796	32775	
2622	0	32820	32876	
2623	0	32792	32808	
2624	0	32760	32759	
2625	0	32792	32764	
2626	0	32808	32830	
2627	0	32784	32666	
2628	0	32770	32747	
2629	0	32808	32652	
2630	0	32812	32662	
2631	0	32778	32732	
2632	0	32732	32775	
2633	0	32804	32811	
2634	0	32828	32623	
2635	0	32816	32710	
2636	0	32804	32836	
2637	0	32834	32746	
2638	0	32828	32775	
2639	0	32884	32775	
2640	0	32770	32839	
2641	0	32830	32684	
2642	0	32824	32806	
2643	0	32792	32887	
2644	0	32820	32703	
2645	0	32772	32775	
2646	0	32820	32812	
2647	0	32810	32698	
2648	0	32898	32739	
2649	0	32832	32842	
2650	0	32872	32832	
2651	0	32872	32834	
2652	0	32756	32678	
2653	0	32892	32802	
2654	0	32900	32804	
2655	0	32760	32711	
2656	0	32840	32828	
2657	0	32800	32784	
2658	0	32816	32800	
2659	0	32830	32646	
2660	0	32816	32868	
2661	0	32720	32818	
2662	0	32748	32711	
2663	0	32816	32870	
2664	0	32768	32775	
2665	0	32788	32732	
2666	0	32740	32750	
2667	0	32764	32737	
2668	0	32768	32665	
2669	0	32820	32743	
2670	0	32784	32806	
2671	0	32862	32844	
2672	0	32830	32725	
2673	0	32839	32764	
2674	0	32684	32756	
2675	0	32814	32774	
2676	0	32836	32719	
2677	0	32864	32790	
2678	0	32866	32783	
2679	0	32885	32692	
2680	0	32848	32746	
2681	0	32852	32775	
2682	0	32856	32706	
2683	0	32864	32692	
2684	0	32792	32775	
2685	0	32764	32876	
2686	0	32828	32708	
2687	0	32818	32768	
2688	0	32706	32748	
2689	0	32788	32756	
2690	0	32756	32775	
2691	0	32784	32648	
2692	0	32860	32796	
2693	0	32804	32664	
2694	0	32768	32638	
2695	0	32814	32766	
2696	0	32800	32871	
2697	0	32842	32745	
2698	0	32704	32854	
2699	0	32832	32866	
2700	0	32784	32784	
2701	0	32824	32870	
2702	0	32772	32806	
2703	0	32812	32772	
2704	0	32800	32814	
2705	0	32800	32862	
2706	0	32832	32700	
2707	0	32792	32719	
2708	0	32842	32870	
2709	0	32804	32720	
2710	0	32822	32714	
2711	0	32800	32743	
2712	0	32790	32740	
2713	0	32840	32810	
2714	0	32790	32702	
2715	0	32836	32783	
2716	0	32816	32724	
2717	0	32840	32858	
2718	0	32850	32834	
2719	0	32862	32716	
2720	0	32778	32758	
2721	0	32760	32697	
2722	0	32804	32732	
2723	0	32816	32714	
2724	0	32778	32820	
2725	0	32756	32752	
2726	0	32808	32702	
2727	0	32836	32775	
2728	0	32764	32820	
2729	0	32832	32708	
2730	0	32886	32775	
2731	0	32824	32774	
2732	0	32814	32750	
2733	0	32868	32758	
2734	0	32860	32761	
2735	0	32858	32675	
2736	0	32820	32727	
2737	0	32820	32722	
2738	0	32846	32772	
2739	0	32868	32670	
2740	0	32846	32734	
2741	0	32748	32775	
2742	0	32774	32728	
2743	0	32802	32775	
2744	0	32816	32775	
2745	0	32880	32744	
2746	0	32724	32836	
2747	0	32724	32775	
2748	0	32764	32696	
2749	0	32738	32758	
2750	0	32752	32740	
2751	0	32800	32673	
2752	0	32852	32804	
2753	0	32884	32724	
2754	0	32808	32687	
2755	0	32794	32775	
2756	0	32856	32770	
2757	0	32856	32692	
2758	0	32872	32775	
2759	0	32784	32794	
2760	0	32830	32740	
2761	0	32793	32746	
2762	0	32762	32808	
2763	0	32816	32728	
2764	0	32818	32804	
2765	0	32860	32688	
2766	0	32804	32674	
2767	0	32836	32806	
2768	0	32850	32708	
2769	0	32832	32836	
2770	0	32856	32804	
2771	0	32804	32725	
2772	0	32826	32785	
2773	0	32782	32702	
2774	0	32796	32650	
2775	0	32796	32792	
2776	0	32804	32814	
2777	0	32828	32696	
2778	0	32808	32790	
2779	0	32780	32718	
2780	0	32816	32879	
2781	0	32816	32775	
2782	0	32812	32634	
2783	0	32804	32794	
2784	0	32824	32775	
2785	0	32852	32792	
2786	0	32860	32842	
2787	0	32764	32702	
2788	0	32834	32828	
2789	0	32790	32850	
2790	0	32854	32734	
2791	0	32836	32770	
2792	0	32808	32687	
2793	0	32816	32839	
2794	0	32828	32794	
2795	0	32820	32712	
2796	0	32756	32775	
2797	0	32848	32804	
2798	0	32828	32686	
2799	0	32784	32667	
2800	0	32836	32678	
2801	0	32832	32740	
2802	0	32840	32695	
2803	0	32814	32844	
2804	0	32804	32834	
2805	0	32792	32678	
2806	0	32804	32730	
2807	0	32774	32756	
2808	0	32776	32874	
2809	0	32772	32840	
2810	0	32816	32822	
2811	0	32824	32774	
2812	0	32756	32934	
2813	0	32884	32774	
2814	0	32896	32868	
2815	0	32800	32869	
2816	0	32952	32760	
2817	0	32832	32798	
2818	0	32812	32679	
2819	0	32878	32751	
2820	0	32788	32766	
2821	0	32860	32704	
2822	0	32804	32788	
2823	0	32788	32775	
2824	0	32836	32796	
2825	0	32756	32730	
2826	0	32776	32674	
2827	0	32804	32756	
2828	0	32724	32678	
2829	0	32840	32742	
2830	0	32856	32865	
2831	0	32754	32694	
2832	0	32784	32720	
2833	0	32816	32732	
2834	0	32888	32786	
2835	0	32848	32716	
2836	0	32818	32711	
2837	0	32788	32812	
2838	0	32814	32756	
2839	0	32876	32790	
2840	0	32774	32800	
2841	0	32800	32735	
2842	0	32848	32712	
2843	0	32828	32796	
2844	0	32840	32784	
2845	0	32772	32709	
2846	0	32828	32775	
2847	0	32782	32820	
2848	0	32856	32762	
2849	0	32844	32775	
2850	0	32916	32743	
2851	0	32852	32804	
2852	0	32796	32758	
2853	0	32832	32736	
2854	0	32816	32679	
2855	0	32804	32772	
2856	0	32784	32732	
2857	0	32776	32816	
2858	0	32800	32698	
2859	0	32830	32762	
2860	0	32809	32760	
2861	0	32832	32849	
2862	0	32772	32732	
2863	0	32742	32744	
2864	0	32884	32783	
2865	0	32812	32636	
2866	0	32836	32801	
2867	0	32790	32814	
2868	0	32868	32710	
2869	0	32812	32775	
2870	0	32804	32788	
2871	0	32864	32794	
2872	0	32744	32704	
2873	0	32744	32732	
2874	0	32775	32826	
2875	0	32892	32879	
2876	0	32828	32806	
2877	0	32816	32750	
2878	0	32788	32772	
2879	0	32800	32708	
2880	0	32790	32804	
2881	0	32784	32775	
2882	0	32804	32871	
2883	0	32838	32856	
2884	0	32856	32710	
2885	0	32768	32818	
2886	0	32816	32756	
2887	0	32844	32800	
2888	0	32792	32726	
2889	0	32784	32824	
2890	0	32804	32802	
2891	0	32806	32636	
2892	0	32774	32794	
2893	0	32758	32711	
2894	0	32868	32796	
2895	0	32860	32756	
2896	0	32814	32838	
2897	0	32846	32840	
2898	0	32828	32803	
2899	0	32804	32772	
2900	0	32806	32743	
2901	0	32820	32700	
2902	0	32840	32679	
2903	0	32784	32732	
2904	0	32784	32734	
2905	0	32700	32775	
2906	0	32796	32805	
2907	0	32832	32796	
2908	0	32864	32828	
2909	0	32808	32834	
2910	0	32852	32752	
2911	0	32816	32816	
2912	0	32820	32817	
2913	0	32852	32670	
2914	0	32812	32718	
2915	0	32820	32838	
2916	0	32820	32730	
2917	0	32778	32729	
2918	0	32834	32800	
2919	0	32852	32743	
2920	0	32814	32696	
2921	0	32792	32743	
2922	0	32812	32766	
2923	0	32834	32807	
2924	0	32808	32808	
2925	0	32784	32727	
2926	0	32760	32822	
2927	0	32749	32807	
2928	0	32820	32640	
2929	0	32800	32759	
2930	0	32834	32736	
2931	0	32844	32708	
2932	0	32920	32772	
2933	0	32792	32754	
2934	0	32844	32770	
2935	0	32856	32686	
2936	0	32842	32798	
2937	0	32800	32812	
2938	0	32796	32743	
2939	0	32848	32758	
2940	0	32832	32764	
2941	0	32744	32774	
2942	0	32804	32743	
2943	0	32832	32720	
2944	0	32796	32815	
2945	0	32844	32774	
2946	0	32788	32679	
2947	0	32764	32848	
2948	0	32868	32818	
2949	0	32848	32832	
2950	0	32772	32823	
2951	0	32784	32668	
2952	0	32834	32804	
2953	0	32874	32704	
2954	0	32852	32774	
2955	0	32872	32802	
2956	0	32844	32700	
2957	0	32832	32823	
2958	0	32842	32748	
2959	0	32772	32775	
2960	0	32828	32812	
2961	0	32802	32647	
2962	0	32756	32764	
2963	0	32782	32770	
2964	0	32824	32832	
2965	0	32850	32786	
2966	0	32844	32705	
2967	0	32878	32798	
2968	0	32812	32828	
2969	0	32834	32718	
2970	0	32800	32820	
2971	0	32814	32870	
2972	0	32820	32764	
2973	0	32816	32774	
2974	0	32822	32726	
2975	0	32748	32726	
2976	0	32820	32743	
2977	0	32858	32638	
2978	0	32724	32775	
2979	0	32772	32790	
2980	0	32800	32792	
2981	0	32716	32754	
2982	0	32804	32638	
2983	0	32816	32774	
2984	0	32800	32820	
2985	0	32838	32724	
2986	0	32836	32764	
2987	0	32852	32775	
2988	0	32804	32623	
2989	0	32798	32788	
2990	0	32808	32807	
2991	0	32808	32706	
2992	0	32834	32815	
2993	0	32820	32711	
2994	0	32830	32724	
2995	0	32824	32764	
2996	0	32752	32838	
2997	0	32804	32664	
2998	0	32856	32694	
2999	0	32800	32804	
3000	0	32760	32704	
3001	0	32816	32734	
3002	0	32789	32818	
3003	0	32776	32728	
3004	0	32804	32860	
3005	0	32804	32740	
3006	0	32808	32794	
3007	0	32820	32696	
3008	0	32852	32742	
3009	0	32782	32814	
3010	0	32788	32930	
3011	0	32814	32814	
3012	0	32844	32860	
3013	0	32840	32862	
3014	0	32788	32864	
3015	0	32800	32695	
3016	0	32836	32826	
3017	0	32852	32788	
3018	0	32852	32692	
3019	0	32854	32674	
3020	0	32824	32732	
3021	0	32764	32802	
3022	0	32844	32582	
3023	0	32824	32850	
3024	0	32816	32756	
3025	0	32856	32820	
3026	0	32792	32694	
3027	0	32820	32784	
3028	0	32660	32728	
3029	0	32740	32631	
3030	0	32828	32767	
3031	0	32824	32694	
3032	0	32802	32692	
3033	0	32865	32775	
3034	0	32804	32762	
3035	0	32740	32712	
3036	0	32856	32679	
3037	0	32840	32733	
3038	0	32836	32855	
3039	0	32792	32775	
3040	0	32810	32785	
3041	0	32788	32886	
3042	0	32852	32760	
3043	0	32752	32886	
3044	0	32710	32897	
3045	0	32744	32792	
3046	0	32692	32912	
3047	0	32668	32810	
3048	0	32808	32756	
3049	0	32790	32772	
3050	0	32852	32746	
3051	0	32820	32673	
3052	0	32812	32758	
3053	0	32942	32720	
3054	0	32964	32764	
3055	0	32824	32647	
3056	0	32846	32775	
3057	0	32920	32807	
3058	0	32906	32604	
3059	0	32862	32799	
3060	0	32782	32774	
3061	0	32888	32716	
3062	0	32864	32804	
3063	0	32860	32774	
3064	0	32796	32866	
3065	0	32766	32768	
3066	0	32740	32752	
3067	0	32780	32708	
3068	0	32810	32804	
3069	0	32824	32839	
3070	0	32812	32700	
3071	0	32852	32775	
3072	0	32812	32799	
3073	0	32756	32722	
3074	0	32846	32710	
3075	0	32840	32711	
3076	0	32856	32794	
3077	0	32816	32724	
3078	0	32792	32804	
3079	0	32782	32750	
3080	0	32808	32756	
3081	0	32816	32672	
3082	0	32828	32802	
3083	0	32776	32800	
3084	0	32796	32774	
3085	0	32800	32742	
3086	0	32780	32846	
3087	0	32808	32892	
3088	0	32798	32718	
3089	0	32802	32810	
3090	0	32852	32770	
3091	0	32812	32775	
3092	0	32766	32698	
3093	0	32818	32738	
3094	0	32812	32810	
3095	0	32848	32828	
3096	0	32806	32858	
3097	0	32852	32696	
3098	0	32824	32800	
3099	0	32756	32716	
3100	0	32766	32807	
3101	0	32804	32724	
3102	0	32752	32756	
3103	0	32780	32828	
3104	0	32822	32708	
3105	0	32880	32768	
3106	0	32914	32692	
3107	0	32804	32718	
3108	0	32838	32770	
3109	0	32836	32807	
3110	0	32848	32820	
3111	0	32808	32788	
3112	0	32832	32742	
3113	0	32784	32792	
3114	0	32726	32756	
3115	0	32796	32646	
3116	0	32824	32612	
3117	0	32796	32732	
3118	0	32818	32724	
3119	0	32832	32772	
3120	0	32832	32919	
3121	0	32810	32830	
3122	0	32736	32944	
3123	0	32748	32798	
3124	0	32774	32968	
3125	0	32792	32880	
3126	0	32832	32764	
3127	0	32840	32908	
3128	0	32820	32866	
3129	0	32806	32624	
3130	0	32784	32738	
3131	0	32772	32802	
3132	0	32810	32702	
3133	0	32788	32678	
3134	0	32818	32644	
3135	0	32840	32730	
3136	0	32812	32775	
3137	0	32800	32770	
3138	0	32784	32612	
3139	0	32918	32808	
3140	0	32802	32770	
3141	0	32842	32702	
3142	0	32786	32775	
3143	0	32756	32698	
3144	0	32758	32828	
3145	0	32852	32718	
3146	0	32788	32828	
3147	0	32748	32816	
3148	0	32888	32744	
3149	0	32762	32892	
3150	0	32712	32788	
3151	0	32788	32728	
3152	0	32840	32754	
3153	0	32790	32800	
3154	0	32800	32757	
3155	0	32780	32702	
3156	0	32782	32695	
3157	0	32772	32703	
3158	0	32796	32670	
3159	0	32848	32748	
3160	0	32894	32744	
3161	0	32924	32823	
3162	0	32880	32674	
3163	0	32906	32798	
3164	0	32798	32792	
3165	0	32832	32879	
3166	0	32800	32790	
3167	0	32808	32868	
3168	0	32764	32740	
3169	0	32836	32704	
3170	0	32820	32823	
3171	0	32796	32744	
3172	0	32804	32742	
3173	0	32752	32762	
3174	0	32798	32638	
3175	0	32808	32614	
3176	0	32836	32758	
3177	0	32764	32775	
3178	0	32846	32662	
3179	0	32852	32694	
3180	0	32828	32774	
3181	0	32889	32542	
3182	0	32856	32788	
3183	0	32860	32858	
3184	0	32842	32711	
3185	0	32878	32900	
3186	0	32840	32970	
3187	0	32790	32876	
3188	0	32820	32772	
3189	0	32850	32800	
3190	0	32776	32802	
3191	0	32808	32782	
3192	0	32736	32718	
3193	0	32816	32768	
3194	0	32838	32799	
3195	0	32848	32740	
3196	0	32780	32626	
3197	0	32798	32634	
3198	0	32812	32755	
3199	0	32844	32603	
3200	0	32800	32686	
3201	0	32816	32722	
3202	0	32808	32640	
3203	0	32748	32775	
3204	0	32730	32878	
3205	0	32780	32720	
3206	0	32856	32756	
3207	0	32774	32710	
3208	0	32824	32726	
3209	0	32756	32702	
3210	0	32818	32756	
3211	0	32800	32796	
3212	0	32784	32772	
3213	0	32780	32934	
3214	0	32796	32880	
3215	0	32808	32822	
3216	0	32782	32866	
3217	0	32888	32934	
3218	0	32792	32860	
3219	0	32816	32842	
3220	0	32812	32953	
3221	0	32806	32770	
3222	0	32760	32796	
3223	0	32858	32730	
3224	0	32844	32623	
3225	0	32910	32740	
3226	0	32846	32710	
3227	0	32832	32610	
3228	0	32860	32802	
3229	0	32780	32740	
3230	0	32821	32788	
3231	0	32868	32774	
3232	0	32800	32846	
3233	0	32904	32732	
3234	0	32716	32790	
3235	0	32764	32864	
3236	0	32834	32861	
3237	0	32792	32735	
3238	0	32804	32814	
3239	0	32796	32794	
3240	0	32828	32672	
3241	0	32820	32808	
3242	0	32732	32740	
3243	0	32784	32714	
3244	0	32810	32775	
3245	0	32700	32684	
3246	0	32744	32626	
3247	0	32796	32676	
3248	0	32752	32722	
3249	0	32800	32714	
3250	0	32824	32799	
3251	0	32848	32866	
3252	0	32828	32887	
3253	0	32822	32772	
3254	0	32740	32831	
3255	0	32708	32772	
3256	0	32680	32647	
3257	0	32750	32834	
3258	0	32800	32748	
3259	0	32678	32548	
3260	0	32754	32623	
3261	0	32842	32599	
3262	0	32808	32550	
3263	0	32916	32832	
3264	0	32844	32767	
3265	0	32912	32829	
3266	0	32892	32807	
3267	0	32916	32866	
3268	0	32952	32832	
3269	0	32976	32764	
3270	0	33016	32888	
3271	0	33012	32934	
3272	0	33018	32895	
3273	0	32972	32874	
3274	0	32982	32922	
3275	0	32932	32828	
3276	0	32960	32795	
3277	0	32912	32902	
3278	0	32842	32892	
3279	0	32846	32775	
3280	0	32870	32724	
3281	0	32742	32671	
3282	0	32778	32680	
3283	0	32740	32759	
3284	0	32668	32592	
3285	0	32654	32653	
3286	0	32744	32686	
3287	0	32688	32790	
3288	0	32748	32764	
3289	0	32725	32718	
3290	0	32796	32728	
3291	0	32588	32743	
3292	0	32740	32626	
3293	0	32674	32680	
3294	0	32644	32698	
3295	0	32766	32606	
3296	0	32844	32812	
3297	0	32752	32870	
3298	0	32766	32796	
3299	0	32794	32818	
3300	0	32850	32736	
3301	0	32832	32796	
3302	0	32802	32828	
3303	0	32724	32806	
3304	0	32748	32764	
3305	0	32756	32820	
3306	0	32860	32806	
3307	0	32804	32738	
3308	0	32840	32754	
3309	0	32880	32750	
3310	0	32824	32742	
3311	0	32836	32750	
3312	0	32860	32868	
3313	0	32832	32808	
3314	0	32842	32828	
3315	0	32880	32872	
3316	0	32928	32652	
3317	0	32904	32788	
3318	0	32808	32810	
3319	0	32812	32670	
3320	0	32752	32532	
3321	0	32816	32535	
3322	0	32824	32711	
3323	0	32818	32834	
3324	0	32742	32720	
3325	0	32718	32766	
3326	0	32678	32839	
3327	0	32740	33108	
3328	0	32758	32855	
3329	0	32808	32852	
3330	0	32844	32828	
3331	0	32900	32764	
3332	0	32920	32732	
3333	0	32800	32800	
3334	0	32844	32876	
3335	0	32792	32616	
3336	0	32732	32679	
3337	0	32700	32452	
3338	0	32768	32358	
3339	0	32728	32487	
3340	0	32808	32519	
3341	0	32768	32695	
3342	0	32840	32706	
3343	0	32774	32956	
3344	0	32820	32948	
3345	0	32836	32926	
3346	0	32860	32902	
3347	0	32828	32794	
3348	0	32736	32774	
3349	0	32784	32638	
3350	0	32852	32548	
3351	0	32864	32540	
3352	0	32906	32516	
3353	0	32986	32652	
3354	0	32810	32721	
3355	0	32880	32904	
3356	0	32852	32879	
3357	0	32928	32994	
3358	0	33044	33112	
3359	0	32928	33084	
3360	0	32924	33228	
3361	0	32994	33308	
3362	0	33058	33156	
3363	0	32988	33198	
3364	0	32950	33242	
3365	0	33076	33109	
3366	0	33012	33116	
3367	0	32908	32772	
3368	0	32802	32790	
3369	0	32756	32600	
3370	0	32740	32598	
3371	0	32818	32482	
3372	0	32824	32391	
3373	0	32724	32452	
3374	0	32664	32556	
3375	0	32706	32370	
3376	0	32768	32518	
3377	0	32690	32492	
3378	0	32672	32588	
3379	0	32678	32572	
3380	0	32692	32802	
3381	0	32680	32708	
3382	0	32712	32821	
3383	0	32738	32666	
3384	0	32728	32786	
3385	0	32720	32750	
3386	0	32712	32802	
3387	0	32736	32626	
3388	0	32780	32796	
3389	0	32736	32844	
3390	0	32712	32764	
3391	0	32704	32775	
3392	0	32720	32762	
3393	0	32728	32742	
3394	0	32796	32756	
3395	0	32836	32860	
3396	0	32992	32730	
3397	0	32888	32888	
3398	0	32840	32798	
3399	0	32762	32844	
3400	0	32860	32647	
3401	0	32852	32832	
3402	0	32828	32700	
3403	0	32806	32716	
3404	0	32848	32824	
3405	0	32868	32838	
3406	0	32884	32802	
3407	0	32898	32886	
3408	0	32804	32805	
3409	0	32856	32678	
3410	0	32822	32614	
3411	0	32732	32471	
3412	0	32724	32496	
3413	0	32712	32615	
3414	0	32660	32614	
3415	0	32650	32567	
3416	0	32647	32726	
3417	0	32760	32836	
3418	0	32804	32824	
3419	0	32828	32887	
3420	0	32918	32958	
3421	0	32968	32934	
3422	0	32980	33063	
3423	0	33012	33030	
3424	0	32978	32951	
3425	0	33004	33122	
3426	0	32948	33098	
3427	0	32982	32918	
3428	0	32964	33131	
3429	0	32972	32919	
3430	0	32968	32391	
3431	0	32864	32392	
3432	0	32856	32426	
3433	0	32856	32418	
3434	0	32880	32574	
3435	0	32768	32574	
3436	0	32650	32343	
3437	0	32612	32322	
3438	0	32568	32482	
3439	0	32604	32746	
3440	0	32556	32790	
3441	0	32616	33106	
3442	0	32654	33188	
3443	0	32720	33178	
3444	0	32664	33200	
3445	0	32680	33082	
3446	0	32700	33030	
3447	0	32778	33050	
3448	0	32770	33022	
3449	0	32886	32972	
3450	0	32940	32726	
3451	0	32952	32626	
3452	0	32968	32657	
3453	0	33004	32648	
3454	0	33100	32548	
3455	0	32984	32666	
3456	0	32900	32606	
3457	0	32884	32564	
3458	0	32856	32548	
3459	0	32808	32555	
3460	0	32792	32552	
3461	0	32753	32519	
3462	0	32800	32631	
3463	0	32790	32714	
3464	0	32804	32712	
3465	0	32796	32788	
3466	0	32872	32770	
3467	0	32830	32714	
3468	0	32848	32823	
3469	0	32788	32706	
3470	0	32744	32748	
3471	0	32778	32762	
3472	0	32812	32740	
3473	0	32824	32616	
3474	0	32778	32870	
3475	0	32796	32910	
3476	0	32764	32892	
3477	0	32756	32956	
3478	0	32712	32828	
3479	0	32640	32884	
3480	0	32552	32796	
3481	0	32716	32618	
3482	0	32672	32728	
3483	0	32736	32876	
3484	0	32714	32839	
3485	0	32808	32865	
3486	0	32892	32772	
3487	0	32884	32679	
3488	0	32966	32694	
3489	0	32932	32694	
3490	0	32954	32730	
3491	0	32972	32692	
3492	0	33026	32542	
3493	0	33004	32263	
3494	0	32986	32262	
3495	0	32956	32453	
3496	0	32912	32550	
3497	0	32800	32774	
3498	0	32686	33108	
3499	0	32648	33540	
3500	0	32672	33594	
3501	0	32620	33424	
3502	0	32774	33172	
3503	0	32804	33188	
3504	0	32774	33066	
3505	0	32788	32864	
3506	0	32840	32730	
3507	0	32834	32626	
3508	0	32952	32666	
3509	0	32892	32368	
3510	0	32976	32380	
3511	0	32940	32372	
3512	0	32816	32786	
3513	0	32638	32775	
3514	0	32754	32582	
3515	0	32692	32294	
3516	0	32738	32250	
3517	0	32834	32492	
3518	0	32800	32580	
3519	0	32928	32646	
3520	0	32944	32980	
3521	0	32896	33030	
3522	0	32972	32898	
3523	0	32854	32891	
3524	0	32766	32750	
3525	0	32820	32836	
3526	0	32754	33170	
3527	0	32700	33060	
3528	0	32581	32284	
3529	0	32684	32076	
3530	0	32652	32508	
3531	0	32764	32892	
3532	0	32672	33351	
3533	0	32696	33314	
3534	0	32800	33030	
3535	0	32764	33132	
3536	0	32862	32806	
3537	0	32912	32748	
3538	0	32852	32628	
3539	0	32906	32657	
3540	0	32952	32519	
3541	0	32864	32634	
3542	0	32854	32568	
3543	0	32804	32764	
3544	0	32702	32920	
3545	0	32756	32766	
3546	0	32752	32842	
3547	0	32820	32743	
3548	0	32832	32772	
3549	0	32820	32775	
3550	0	32900	32647	
3551	0	32886	32452	
3552	0	32840	32734	
3553	0	32882	32756	
3554	0	32892	32726	
3555	0	32870	32687	
3556	0	32820	32804	
3557	0	32868	32644	
3558	0	32792	32590	
3559	0	32866	32790	
3560	0	32808	32759	
3561	0	32792	32852	
3562	0	32740	32979	
3563	0	32688	32860	
3564	0	32682	32786	
3565	0	32676	32818	
3566	0	32724	32823	
3567	0	32766	32944	
3568	0	32764	32886	
3569	0	32852	33044	
3570	0	32812	32912	
3571	0	32804	32800	
3572	0	32812	32742	
3573	0	32798	32654	
3574	0	32824	32476	
3575	0	32820	32512	
3576	0	32910	32570	
3577	0	32808	32566	
3578	0	32796	32538	
3579	0	32774	32679	
3580	0	32784	32766	
3581	0	32724	32775	
3582	0	32692	32674	
3583	0	32612	33004	
3584	0	32700	32792	
3585	0	32820	32881	
3586	0	32964	32726	
3587	0	33020	32619	
3588	0	33072	32708	
3589	0	33130	32878	
3590	0	33118	32878	
3591	0	32922	33185	
3592	0	32796	33144	
3593	0	32748	32774	
3594	0	32752	32954	
3595	0	32834	32840	
3596	0	32840	32922	
3597	0	32874	32714	
3598	0	32900	32586	
3599	0	32866	32772	
3600	0	32870	32698	
3601	0	32824	32598	
3602	0	32780	32694	
3603	0	32816	32772	
3604	0	32854	32630	
3605	0	32788	32834	
3606	0	32776	32840	
3607	0	32820	32714	
3608	0	32704	32775	
3609	0	32652	32698	
3610	0	32582	32647	
3611	0	32634	32848	
3612	0	32580	32752	
3613	0	32486	32720	
3614	0	32440	32740	
3615	0	32612	32367	
3616	0	32712	32216	
3617	0	32744	32487	
3618	0	32922	32516	
3619	0	33012	32656	
3620	0	32984	33058	
3621	0	33000	33164	
3622	0	32980	33218	
3623	0	33090	33098	
3624	0	33092	32885	
3625	0	33106	32886	
3626	0	33088	32988	
3627	0	33108	33067	
3628	0	32980	32754	
3629	0	32926	33041	
3630	0	32834	32924	
3631	0	32788	32712	
3632	0	32800	32682	
3633	0	32708	32628	
3634	0	32644	32122	
3635	0	32590	32342	
3636	0	32550	32071	
3637	0	32572	31960	
3638	0	32500	32062	
3639	0	32488	32519	
3640	0	32484	32487	
3641	0	32524	32877	
3642	0	32606	33446	
3643	0	32800	33398	
3644	0	32834	33348	
3645	0	32924	33150	
3646	0	33008	33242	
3647	0	33056	33459	
3648	0	33032	33174	
3649	0	32984	33222	
3650	0	32992	33050	
3651	0	32996	33091	
3652	0	32932	33080	
3653	0	32854	32840	
3654	0	32952	32671	
3655	0	32870	32494	
3656	0	32888	32476	
3657	0	32880	32454	
3658	0	32816	32407	
3659	0	32878	32463	
3660	0	32808	32356	
3661	0	32692	32408	
3662	0	32616	32336	
3663	0	32456	32149	
3664	0	32192	31975	
3665	0	32220	32106	
3666	0	32330	32474	
3667	0	32484	32886	
3668	0	32754	32968	
3669	0	32840	33350	
3670	0	32992	33174	
3671	0	33086	33204	
3672	0	33096	33162	
3673	0	33072	33238	
3674	0	33072	33263	
3675	0	33112	33132	
3676	0	33120	33052	
3677	0	33264	32903	
3678	0	33148	32828	
3679	0	33212	32704	
3680	0	33252	32550	
3681	0	33146	32518	
3682	0	33082	32544	
3683	0	32912	32624	
3684	0	32854	32752	
3685	0	32775	32684	
3686	0	32774	32714	
3687	0	32780	32638	
3688	0	32696	32608	
3689	0	32556	32695	
3690	0	32564	32722	
3691	0	32516	32774	
3692	0	32468	32583	
3693	0	32544	32758	
3694	0	32584	32612	
3695	0	32536	32647	
3696	0	32608	32624	
3697	0	32694	32736	
3698	0	32556	32711	
3699	0	32712	32868	
3700	0	32680	32816	
3701	0	32794	32640	
3702	0	32772	32804	
3703	0	32792	32739	
3704	0	32840	32736	
3705	0	32864	32771	
3706	0	32974	32862	
3707	0	32973	32764	
3708	0	32978	32782	
3709	0	32908	32658	
3710	0	32976	32708	
3711	0	32844	32646	
3712	0	32816	32848	
3713	0	32744	32852	
3714	0	32718	32902	
3715	0	32668	33102	
3716	0	32708	32920	
3717	0	32752	32666	
3718	0	32716	32760	
3719	0	32842	32752	
3720	0	32784	32830	
3721	0	32832	33030	
3722	0	32830	32986	
3723	0	32700	32764	
3724	0	32736	32534	
3725	0	32724	32788	
3726	0	32728	32724	
3727	0	32704	32622	
3728	0	32568	32934	
3729	0	32752	33066	
3730	0	32764	32872	
3731	0	32668	32152	
3732	0	32600	32254	
3733	0	32472	32378	
3734	0	32558	32614	
3735	0	32753	33130	
3736	0	32686	32880	
3737	0	32656	32625	
3738	0	32866	32295	
3739	0	33014	32872	
3740	0	33140	33466	
3741	0	33260	33442	
3742	0	33218	33094	
3743	0	33112	33174	
3744	0	33136	33372	
3745	0	33040	33268	
3746	0	32897	32864	
3747	0	32716	32938	
3748	0	32828	32804	
3749	0	32984	32686	
3750	0	33004	32442	
3751	0	33040	32245	
3752	0	32908	32399	
3753	0	32930	32472	
3754	0	33076	32618	
3755	0	33140	32754	
3756	0	33256	32662	
3757	0	33402	32368	
3758	0	33292	32753	
3759	0	33144	32460	
3760	0	33020	32660	
3761	0	32994	33062	
3762	0	32816	33092	
3763	0	32758	32958	
3764	0	32768	32658	
3765	0	32660	32482	
3766	0	32730	32630	
3767	0	32640	32784	
3768	0	32698	32868	
3769	0	32744	32900	
3770	0	32620	32888	
3771	0	32560	32832	
3772	0	32534	32954	
3773	0	32494	32930	
3774	0	32546	32692	
3775	0	32530	32608	
3776	0	32544	32726	
3777	0	32598	32604	
3778	0	32698	32554	
3779	0	32582	32665	
3780	0	32606	32622	
3781	0	32576	32458	
3782	0	32560	32818	
3783	0	32522	32832	
3784	0	32514	32198	
3785	0	32628	32430	
3786	0	32648	32446	
3787	0	32724	32526	
3788	0	32840	32802	
3789	0	32846	33084	
3790	0	32860	33078	
3791	0	32952	33020	
3792	0	32984	32980	
3793	0	32938	32908	
3794	0	32992	32960	
3795	0	32968	33064	
3796	0	32962	32922	
3797	0	32952	32920	
3798	0	32880	32967	
3799	0	32824	32884	
3800	0	32866	32574	
3801	0	32784	32660	
3802	0	32821	32631	
3803	0	32652	32471	
3804	0	32572	32426	
3805	0	32376	32310	
3806	0	32138	32358	
3807	0	32058	32444	
3808	0	32054	32556	
3809	0	32229	32176	
3810	0	32294	32178	
3811	0	32540	32135	
3812	0	32788	32807	
3813	0	33032	33760	
3814	0	32960	33863	
3815	0	32760	34076	
3816	0	32792	33930	
3817	0	32964	33414	
3818	0	33156	32988	
3819	0	33280	32476	
3820	0	33248	32186	
3821	0	33280	31936	
3822	0	33296	32436	
3823	0	33226	32850	
3824	0	33384	32558	
3825	0	33414	32244	
3826	0	33500	32518	
3827	0	33604	32690	
3828	0	33686	32866	
3829	0	33710	33031	
3830	0	33740	33280	
3831	0	33636	33768	
3832	0	33498	33016	
3833	0	33204	32881	
3834	0	32910	33226	
3835	0	32668	33480	
3836	0	32462	33467	
3837	0	32112	33234	
3838	0	31694	32364	
3839	0	31676	31870	
3840	0	31832	31703	
3841	0	32060	32223	
3842	0	32240	31350	
3843	0	32120	31954	
3844	0	32152	32242	
3845	0	32416	32936	
3846	0	32488	33079	
3847	0	32828	32834	
3848	0	33120	32210	
3849	0	33380	32790	
3850	0	33364	33408	
3851	0	33392	33540	
3852	0	33512	33734	
3853	0	33568	33255	
3854	0	33436	32864	
3855	0	33318	32758	
3856	0	33128	32695	
3857	0	32916	32774	
3858	0	32714	32940	
3859	0	32524	32916	
3860	0	32520	32561	
3861	0	32538	32564	
3862	0	32564	32558	
3863	0	32516	32647	
3864	0	32510	32560	
3865	0	32506	32506	
3866	0	32464	32764	
3867	0	32476	32519	
3868	0	32596	32344	
3869	0	32516	32515	
3870	0	32366	32658	
3871	0	32404	32550	
3872	0	32604	32930	
3873	0	32596	32690	
3874	0	32664	32472	
3875	0	32632	32573	
3876	0	32772	32668	
3877	0	32836	32898	
3878	0	32926	33118	
3879	0	32902	33180	
3880	0	32880	33180	
3881	0	32774	33008	
3882	0	32912	32704	
3883	0	32928	32868	
3884	0	33088	32790	
3885	0	33053	32492	
3886	0	32986	32732	
3887	0	32992	32670	
3888	0	32960	32639	
3889	0	32892	32574	
3890	0	32680	32511	
3891	0	32412	32298	
3892	0	32492	32758	
3893	0	32380	32684	
3894	0	32306	32647	
3895	0	32152	32976	
3896	0	32106	32824	
3897	0	32280	32678	
3898	0	32656	32500	
3899	0	32921	32542	
3900	0	33136	32620	
3901	0	33272	32844	
3902	0	33296	32886	
3903	0	33280	33090	
3904	0	33450	33404	
3905	0	33404	33414	
3906	0	33488	33444	
3907	0	33372	33256	
3908	0	33472	33150	
3909	0	33490	33254	
3910	0	33646	33122	
3911	0	33668	33135	
3912	0	33608	32663	
3913	0	33224	32495	
3914	0	32860	32262	
3915	0	32496	31907	
3916	0	32408	31724	
3917	0	32212	31646	
3918	0	31992	32078	
3919	0	31960	32976	
3920	0	32186	32874	
3921	0	32276	32516	
3922	0	32434	33137	
3923	0	32612	33412	
3924	0	32692	33602	
3925	0	32836	33082	
3926	0	32864	32426	
3927	0	33226	32437	
3928	0	33242	32354	
3929	0	33109	32480	
3930	0	33240	32375	
3931	0	33260	32130	
3932	0	33288	33526	
3933	0	33176	33582	
3934	0	33120	33324	
3935	0	33108	33522	
3936	0	32720	33362	
3937	0	32560	32632	
3938	0	32540	32790	
3939	0	32514	32794	
3940	0	32532	32487	
3941	0	32480	32018	
3942	0	32496	32102	
3943	0	32533	32262	
3944	0	32712	32038	
3945	0	32688	32402	
3946	0	32568	33046	
3947	0	32448	32798	
3948	0	32348	32519	
3949	0	32198	32916	
3950	0	32098	32814	
3951	0	32358	32546	
3952	0	32508	32560	
3953	0	32688	33242	
3954	0	32859	33430	
3955	0	33056	33412	
3956	0	33158	33250	
3957	0	32864	33486	
3958	0	32704	33692	
3959	0	32782	33252	
3960	0	32960	32772	
3961	0	33078	32550	
3962	0	33148	32278	
3963	0	33052	32180	
3964	0	32746	32536	
3965	0	32620	32775	
3966	0	32598	32647	
3967	0	32690	32310	
3968	0	32844	32310	
3969	0	32938	32263	
3970	0	33008	32064	
3971	0	33141	32364	
3972	0	33216	32442	
3973	0	33198	32432	
3974	0	33216	32892	
3975	0	33364	32714	
3976	0	33408	32356	
3977	0	33284	32608	
3978	0	33082	33103	
3979	0	32991	33224	
3980	0	32928	33286	
3981	0	32954	33220	
3982	0	32898	32846	
3983	0	32824	32909	
3984	0	32788	33064	
3985	0	32870	33239	
3986	0	32904	33586	
3987	0	32976	33062	
3988	0	32848	33412	
3989	0	32841	33208	
3990	0	32708	32644	
3991	0	32724	32703	
3992	0	32680	32638	
3993	0	32320	32510	
3994	0	32112	32490	
3995	0	32078	32566	
3996	0	32180	32642	
3997	0	32364	32529	
3998	0	32116	32364	
3999	0	31768	31802	
4000	0	31708	31164	
4001	0	31672	31390	
4002	0	31808	32340	
4003	0	31958	32164	
4004	0	32692	32362	
4005	0	33312	33632	
4006	0	33664	34339	
4007	0	33988	34031	
4008	0	34252	33428	
4009	0	34588	33664	
4010	0	34532	33514	
4011	0	34140	33352	
4012	0	33608	33478	
4013	0	33250	33260	
4014	0	32944	32620	
4015	0	32524	32391	
4016	0	32372	32373	
4017	0	32280	32551	
4018	0	32070	32492	
4019	0	31582	32412	
4020	0	31366	32366	
4021	0	31534	32428	
4022	0	31774	32564	
4023	0	32182	32450	
4024	0	32628	32574	
4025	0	32976	32408	
4026	0	32944	32630	
4027	0	32972	32748	
4028	0	32924	32019	
4029	0	33254	32094	
4030	0	33745	31504	
4031	0	33952	31158	
4032	0	34080	32308	
4033	0	34218	33264	
4034	0	34142	33342	
4035	0	33950	34068	
4036	0	33828	33950	
4037	0	33584	34760	
4038	0	33252	34340	
4039	0	32862	33530	
4040	0	32692	33316	
4041	0	32144	33232	
4042	0	31716	32694	
4043	0	31446	32724	
4044	0	31440	32300	
4045	0	31156	32368	
4046	0	31230	32082	
4047	0	31684	32228	
4048	0	32072	32068	
4049	0	32408	32216	
4050	0	32644	32156	
4051	0	32938	32250	
4052	0	33068	32426	
4053	0	33148	32452	
4054	0	33222	32636	
4055	0	33300	32506	
4056	0	33068	33198	
4057	0	33232	33204	
4058	0	33408	32826	
4059	0	33420	32868	
4060	0	33450	32775	
4061	0	33700	32804	
4062	0	33328	32743	
4063	0	32996	32706	
4064	0	32704	32606	
4065	0	32864	32686	
4066	0	32884	32532	
4067	0	33078	32942	
4068	0	32896	32530	
4069	0	32376	32556	
4070	0	31912	32983	
4071	0	31866	33302	
4072	0	31932	32860	
4073	0	31858	33206	
4074	0	32068	32962	
4075	0	32436	32743	
4076	0	32740	32785	
4077	0	33188	33010	
4078	0	33028	33273	
4079	0	32544	33222	
4080	0	32636	32759	
4081	0	32606	32356	
4082	0	32949	32228	
4083	0	33416	32326	
4084	0	33704	31992	
4085	0	33790	32694	
4086	0	33928	32926	
4087	0	34028	32764	
4088	0	33904	33514	
4089	0	33696	33438	
4090	0	33538	32970	
4091	0	33342	32480	
4092	0	33246	32938	
4093	0	33242	32440	
4094	0	32641	32586	
4095	0	31712	31858	
4096	0	31266	31314	
4097	0	31258	31926	
4098	0	30802	31900	
4099	0	30199	32664	
4100	0	30242	33028	
4101	0	31336	34032	
4102	0	32244	34288	
4103	0	32824	33962	
4104	0	33656	34178	
4105	0	34124	33530	
4106	0	34448	33164	
4107	0	34478	32716	
4108	0	34320	32260	
4109	0	34520	32351	
4110	0	34336	32236	
4111	0	34190	31870	
4112	0	33888	32190	
4113	0	33792	32456	
4114	0	33433	33096	
4115	0	33080	33066	
4116	0	32544	32312	
4117	0	32184	33058	
4118	0	32092	32124	
4119	0	31784	31504	
4120	0	31966	31508	
4121	0	32126	31814	
4122	0	32074	32840	
4123	0	32064	33076	
4124	0	32100	34084	
4125	0	32280	33822	
4126	0	32350	33863	
4127	0	32276	33428	
4128	0	32260	33319	
4129	0	32232	33026	
4130	0	32026	32750	
4131	0	31976	32852	
4132	0	32036	32930	
4133	0	32052	32796	
4134	0	32464	32604	
4135	0	32216	32439	
4136	0	32262	32631	
4137	0	32700	31902	
4138	0	33096	31100	
4139	0	33792	30782	
4140	0	34508	31407	
4141	0	34912	32304	
4142	0	34848	33238	
4143	0	34344	34088	
4144	0	34065	34070	
4145	0	33628	33078	
4146	0	33194	33202	
4147	0	32720	33310	
4148	0	32120	32796	
4149	0	31938	32220	
4150	0	31896	32510	
4151	0	31730	33054	
4152	0	31960	33226	
4153	0	32592	33080	
4154	0	32668	33264	
4155	0	32912	32402	
4156	0	32860	32490	
4157	0	33040	32756	
4158	0	33164	32046	
4159	0	33548	31364	
4160	0	33684	32494	
4161	0	33664	33216	
4162	0	33404	33494	
4163	0	33190	33472	
4164	0	32884	33420	
4165	0	32936	32162	
4166	0	32916	32224	
4167	0	32312	31720	
4168	0	31692	31766	
4169	0	31722	33248	
4170	0	31464	33598	
4171	0	30772	34584	
4172	0	30866	33632	
4173	0	31396	33328	
4174	0	32400	34244	
4175	0	33076	32822	
4176	0	33256	32696	
4177	0	33892	32500	
4178	0	34356	33024	
4179	0	34692	33374	
4180	0	34788	33230	
4181	0	34912	33799	
4182	0	34676	32903	
4183	0	34452	32073	
4184	0	34138	31794	
4185	0	33080	32119	
4186	0	32286	32464	
4187	0	31932	32537	
4188	0	31784	32057	
4189	0	31428	31822	
4190	0	31188	31974	
4191	0	31274	32135	
4192	0	31558	32020	
4193	0	31748	32380	
4194	0	31898	32538	
4195	0	32256	32542	
4196	0	32270	32966	
4197	0	31852	32932	
4198	0	31948	33415	
4199	0	32548	33454	
4200	0	33020	32843	
4201	0	33140	32990	
4202	0	33332	33108	
4203	0	33336	33383	
4204	0	33480	32952	
4205	0	33510	32722	
4206	0	33782	31308	
4207	0	34172	31728	
4208	0	34268	32683	
4209	0	34028	33652	
4210	0	33566	33164	
4211	0	33110	33140	
4212	0	32984	33864	
4213	0	32712	33242	
4214	0	32274	32880	
4215	0	32180	32967	
4216	0	32418	32862	
4217	0	32078	32679	
4218	0	31690	32858	
4219	0	31460	33006	
4220	0	31944	32423	
4221	0	32328	32508	
4222	0	32648	32550	
4223	0	33406	32871	
4224	0	33484	32510	
4225	0	33356	32606	
4226	0	33217	32420	
4227	0	32806	32418	
4228	0	32976	31792	
4229	0	33004	31924	
4230	0	33238	32642	
4231	0	33412	32772	
4232	0	33312	32967	
4233	0	33218	33004	
4234	0	33500	32998	
4235	0	33592	32312	
4236	0	33424	32182	
4237	0	33144	32196	
4238	0	32838	33300	
4239	0	32596	32756	
4240	0	32304	32935	
4241	0	32118	33396	
4242	0	32224	33411	
4243	0	32260	32954	
4244	0	32552	33554	
4245	0	32652	33863	
4246	0	32504	33528	
4247	0	32288	33350	
4248	0	32224	33076	
4249	0	32232	32978	
4250	0	31812	32809	
4251	0	31452	32560	
4252	0	31336	31916	
4253	0	31672	32180	
4254	0	32202	31226	
4255	0	32882	30468	
4256	0	33496	30640	
4257	0	33898	30452	
4258	0	34246	31956	
4259	0	33796	33428	
4260	0	33013	34924	
4261	0	32912	35308	
4262	0	32888	35132	
4263	0	32960	34468	
4264	0	33408	33871	
4265	0	33290	32152	
4266	0	33608	30420	
4267	0	33870	30215	
4268	0	33890	30690	
4269	0	33808	32560	
4270	0	33614	34286	
4271	0	33204	34520	
4272	0	32728	34695	
4273	0	32576	34872	
4274	0	32692	34138	
4275	0	32412	33340	
4276	0	31714	32903	
4277	0	32016	32234	
4278	0	32476	31231	
4279	0	32420	30974	
4280	0	32428	31274	
4281	0	32396	31086	
4282	0	31820	31890	
4283	0	31436	32592	
4284	0	31660	33646	
4285	0	32252	34342	
4286	0	32872	34502	
4287	0	33356	33799	
4288	0	33290	33031	
4289	0	32990	32760	
4290	0	32502	32404	
4291	0	32232	32642	
4292	0	32512	32502	
4293	0	32704	32368	
4294	0	33664	32044	
4295	0	34308	32402	
4296	0	34092	32860	
4297	0	34084	32743	
4298	0	34008	32176	
4299	0	33792	32362	
4300	0	33384	31876	
4301	0	33058	31609	
4302	0	32846	32418	
4303	0	32518	33204	
4304	0	32548	34158	
4305	0	32416	33720	
4306	0	32700	33324	
4307	0	32540	33260	
4308	0	32188	32050	
4309	0	32002	31662	
4310	0	32074	32038	
4311	0	32168	32178	
4312	0	32426	32350	
4313	0	32168	33152	
4314	0	31768	33572	
4315	0	31700	32658	
4316	0	31720	33384	
4317	0	31216	33896	
4318	0	31124	33902	
4319	0	31392	33890	
4320	0	32040	33302	
4321	0	32692	32600	
4322	0	33114	32800	
4323	0	33634	32560	
4324	0	34184	32034	
4325	0	35076	32181	
4326	0	35594	31920	
4327	0	35764	31657	
4328	0	35780	32002	
4329	0	35520	32660	
4330	0	35176	32903	
4331	0	34672	32573	
4332	0	33736	32974	
4333	0	32801	33748	
4334	0	32312	33668	
4335	0	31710	32366	
4336	0	30876	32188	
4337	0	30374	32464	
4338	0	30242	32456	
4339	0	30404	33479	
4340	0	30844	33968	
4341	0	31420	32956	
4342	0	31774	31690	
4343	0	31708	32302	
4344	0	31520	33028	
4345	0	31616	31838	
4346	0	31982	32156	
4347	0	32708	33410	
4348	0	33504	33612	
4349	0	34254	33204	
4350	0	34838	33111	
4351	0	34956	33206	
4352	0	34708	33728	
4353	0	34200	33426	
4354	0	33496	32518	
4355	0	33112	31968	
4356	0	32892	32772	
4357	0	32704	32628	
4358	0	32672	31824	
4359	0	32230	32234	
4360	0	31952	31800	
4361	0	32310	31844	
4362	0	32324	32792	
4363	0	32588	33074	
4364	0	32472	33232	
4365	0	32572	32976	
4366	0	32628	32784	
4367	0	32608	32364	
4368	0	33228	32692	
4369	0	33658	32622	
4370	0	33352	33287	
4371	0	33316	32990	
4372	0	33184	33764	
4373	0	33176	33511	
4374	0	33082	33478	
4375	0	32746	33202	
4376	0	32516	32558	
4377	0	32828	32180	
4378	0	33076	31824	
4379	0	33216	32340	
4380	0	33032	32556	
4381	0	32870	33410	
4382	0	32736	32960	
4383	0	32546	32404	
4384	0	32664	32362	
4385	0	32678	32898	
4386	0	32334	32582	
4387	0	32296	32775	
4388	0	32436	33286	
4389	0	32418	32764	
4390	0	32000	32320	
4391	0	31752	31704	
4392	0	31844	32040	
4393	0	31772	32775	
4394	0	31578	33002	
4395	0	31110	33446	
4396	0	31026	33356	
4397	0	31416	32935	
4398	0	32390	32422	
4399	0	33262	32791	
4400	0	34024	32902	
4401	0	34712	33384	
4402	0	35236	32888	
4403	0	35632	32380	
4404	0	35630	33582	
4405	0	35208	33524	
4406	0	34542	32944	
4407	0	34186	32158	
4408	0	33648	32694	
4409	0	32954	33732	
4410	0	32452	32672	
4411	0	31968	31855	
4412	0	32042	32298	
4413	0	31974	31560	
4414	0	31796	31316	
4415	0	31784	31500	
4416	0	32020	32696	
4417	0	32282	32428	
4418	0	32478	34138	
4419	0	32580	34959	
4420	0	32680	35468	
4421	0	32770	34278	
4422	0	32586	33297	
4423	0	32072	32836	
4424	0	32001	32388	
4425	0	31934	32135	
4426	0	31696	32544	
4427	0	31448	32108	
4428	0	31780	32041	
4429	0	31954	32060	
4430	0	31576	32204	
4431	0	30848	32362	
4432	0	31194	32196	
4433	0	32276	32142	
4434	0	33452	31767	
4435	0	34726	32330	
4436	0	35164	31672	
4437	0	35266	31504	
4438	0	35996	32948	
4439	0	36056	32654	
4440	0	35564	33446	
4441	0	35156	34180	
4442	0	34468	34662	
4443	0	33908	34692	
4444	0	32920	34951	
4445	0	32834	33850	
4446	0	32200	33728	
4447	0	31356	32903	
4448	0	31178	32502	
4449	0	31292	31988	
4450	0	31600	31740	
4451	0	31980	31468	
4452	0	32240	31159	
4453	0	32054	31879	
4454	0	32064	32038	
4455	0	32238	31460	
4456	0	32272	32348	
4457	0	32278	33234	
4458	0	32104	32954	
4459	0	32524	33524	
4460	0	32352	33568	
4461	0	32128	33268	
4462	0	31632	32775	
4463	0	31404	33174	
4464	0	31992	33246	
4465	0	32832	32805	
4466	0	33458	32663	
4467	0	34088	32422	
4468	0	34654	30849	
4469	0	34658	31622	
4470	0	34180	32004	
4471	0	33950	32832	
4472	0	33952	34560	
4473	0	33944	34167	
4474	0	33862	33300	
4475	0	33744	33110	
4476	0	33250	33374	
4477	0	32732	33412	
4478	0	32644	33498	
4479	0	32704	33031	
4480	0	32536	32508	
4481	0	32340	32472	
4482	0	32248	32736	
4483	0	31988	32806	
4484	0	31516	32748	
4485	0	31492	31586	
4486	0	31632	32407	
4487	0	32448	32337	
4488	0	32996	32660	
4489	0	33146	33088	
4490	0	33204	32564	
4491	0	32288	32096	
4492	0	31136	32208	
4493	0	30088	32498	
4494	0	29984	32664	
4495	0	30836	32663	
4496	0	31798	32154	
4497	0	32832	32389	
4498	0	34138	32660	
4499	0	35242	32850	
4500	0	35698	33488	
4501	0	35844	32098	
4502	0	35888	33412	
4503	0	35572	34370	
4504	0	34996	34030	
4505	0	34372	34032	
4506	0	33412	33620	
4507	0	32500	32638	
4508	0	31746	32702	
4509	0	31302	32185	
4510	0	31252	32142	
4511	0	31204	31870	
4512	0	30939	31464	
4513	0	31022	31296	
4514	0	31080	32398	
4515	0	31313	33592	
4516	0	31786	34160	
4517	0	32316	33714	
4518	0	32556	33046	
4519	0	32700	32274	
4520	0	33488	32822	
4521	0	33648	33076	
4522	0	33308	32689	
4523	0	33140	32412	
4524	0	32624	32770	
4525	0	31876	32074	
4526	0	31634	31964	
4527	0	31740	31544	
4528	0	32440	31086	
4529	0	33380	31264	
4530	0	33536	32366	
4531	0	33460	33452	
4532	0	33654	34374	
4533	0	34134	34300	
4534	0	34072	34998	
4535	0	34172	33818	
4536	0	34188	33751	
4537	0	34040	33386	
4538	0	34276	32690	
4539	0	33888	32556	
4540	0	33508	31930	
4541	0	32800	32182	
4542	0	32108	32896	
4543	0	31840	32472	
4544	0	31798	32072	
4545	0	31624	31888	
4546	0	31482	32004	
4547	0	30898	32150	
4548	0	31042	31980	
4549	0	31718	33026	
4550	0	32270	33068	
4551	0	32220	32756	
4552	0	32048	32446	
4553	0	32161	32647	
4554	0	32292	32004	
4555	0	32340	32247	
4556	0	32606	33080	
4557	0	33024	33520	
4558	0	33506	33758	
4559	0	34004	33900	
4560	0	34332	33874	
4561	0	34456	33178	
4562	0	34664	32808	
4563	0	34408	32844	
4564	0	34602	32848	
4565	0	34532	31996	
4566	0	33728	32582	
4567	0	33324	32853	
4568	0	33252	32902	
4569	0	33254	33064	
4570	0	32988	32904	
4571	0	32508	31844	
4572	0	31208	31652	
4573	0	30656	32348	
4574	0	30478	31678	
4575	0	31088	33209	
4576	0	31724	32900	
4577	0	31024	32944	
4578	0	30672	32606	
4579	0	31606	31998	
4580	0	32896	32868	
4581	0	33804	34004	
4582	0	33794	33668	
4583	0	33624	33775	
4584	0	34196	32462	
4585	0	34420	32564	
4586	0	34276	32118	
4587	0	34024	32426	
4588	0	34132	32976	
4589	0	33780	32408	
4590	0	33348	33992	
4591	0	32920	33148	
4592	0	32316	32660	
4593	0	32268	33350	
4594	0	32268	32788	
4595	0	32292	32383	
4596	0	32212	32474	
4597	0	32344	31690	
4598	0	32706	32457	
4599	0	32376	33262	
4600	0	32100	33382	
4601	0	32028	33174	
4602	0	32060	32490	
4603	0	32356	32128	
4604	0	32330	32142	
4605	0	32296	32622	
4606	0	32420	32284	
4607	0	31932	31886	
4608	0	31732	32444	
4609	0	31644	33150	
4610	0	32224	33484	
4611	0	32548	33564	
4612	0	32948	33478	
4613	0	33159	32386	
4614	0	33248	32400	
4615	0	33634	32824	
4616	0	33670	33095	
4617	0	33932	32996	
4618	0	33980	33008	
4619	0	33862	33668	
4620	0	33476	32792	
4621	0	33232	32391	
4622	0	33048	31807	
4623	0	32762	31871	
4624	0	32470	31180	
4625	0	32384	31322	
4626	0	32790	32376	
4627	0	33018	34390	
4628	0	32490	34022	
4629	0	32892	33484	
4630	0	31872	32408	
4631	0	31792	32748	
4632	0	32356	33040	
4633	0	32918	33678	
4634	0	32860	33860	
4635	0	32962	33128	
4636	0	33040	33176	
4637	0	32860	33052	
4638	0	32844	32004	
4639	0	32276	32506	
4640	0	33316	31804	
4641	0	33596	32608	
4642	0	33016	32519	
4643	0	32916	31952	
4644	0	33472	31940	
4645	0	33450	32206	
4646	0	33310	32190	
4647	0	33212	32458	
4648	0	33484	31788	
4649	0	33786	33370	
4650	0	33564	34352	
4651	0	32524	35136	
4652	0	32298	34479	
4653	0	32448	34380	
4654	0	32354	33108	
4655	0	32624	30916	
4656	0	32930	31357	
4657	0	32984	31508	
4658	0	32714	31622	
4659	0	32948	33334	
4660	0	32788	33020	
4661	0	32338	33000	
4662	0	32506	33396	
4663	0	32872	33606	
4664	0	33444	33287	
4665	0	33884	32528	
4666	0	33718	33087	
4667	0	33573	32647	
4668	0	33454	31738	
4669	0	33182	32263	
4670	0	32572	32391	
4671	0	31874	32775	
4672	0	31064	32868	
4673	0	30780	33104	
4674	0	31286	33315	
4675	0	31420	32800	
4676	0	31280	33382	
4677	0	31934	33070	
4678	0	32788	32118	
4679	0	33260	32594	
4680	0	33296	31834	
4681	0	33556	32340	
4682	0	33728	32511	
4683	0	33808	32309	
4684	0	33616	32419	
4685	0	33740	32715	
4686	0	33634	33058	
4687	0	33550	32860	
4688	0	32832	31612	
4689	0	32252	31454	
4690	0	32240	31458	
4691	0	32088	31796	
4692	0	31800	33358	
4693	0	31834	33844	
4694	0	32100	34212	
4695	0	32256	34902	
4696	0	32232	34016	
4697	0	32796	33782	
4698	0	33240	33557	
4699	0	33740	33676	
4700	0	33874	32944	
4701	0	33168	32620	
4702	0	32062	32135	
4703	0	31842	31902	
4704	0	31856	32007	
4705	0	31532	32214	
4706	0	31990	32262	
4707	0	31326	32132	
4708	0	30872	32284	
4709	0	31462	32476	
4710	0	31984	32664	
4711	0	33034	32940	
4712	0	33630	32550	
4713	0	34132	32748	
4714	0	34686	32972	
4715	0	34996	32534	
4716	0	35040	32127	
4717	0	34926	32512	
4718	0	34478	30300	
4719	0	34312	31756	
4720	0	33908	33182	
4721	0	33902	34004	
4722	0	34068	35070	
4723	0	33831	34544	
4724	0	33280	34122	
4725	0	32968	34201	
4726	0	32565	33470	
4727	0	32444	33140	
4728	0	31654	32836	
4729	0	29764	33100	
4730	0	28954	32352	
4731	0	30158	32142	
4732	0	31632	31492	
4733	0	32640	31598	
4734	0	33316	31540	
4735	0	33688	31418	
4736	0	34368	32562	
4737	0	34596	32775	
4738	0	34732	32908	
4739	0	34272	33191	
4740	0	33172	33282	
4741	0	32482	33716	
4742	0	32231	33044	
4743	0	31300	33055	
4744	0	31140	32990	
4745	0	31632	32738	
4746	0	32118	32336	
4747	0	33156	31552	
4748	0	34020	31002	
4749	0	34504	31894	
4750	0	34976	32646	
4751	0	34740	33896	
4752	0	34466	33826	
4753	0	33744	34250	
4754	0	33164	33794	
4755	0	32464	33336	
4756	0	31888	32774	
4757	0	31428	32366	
4758	0	31042	32454	
4759	0	30864	32316	
4760	0	30946	32558	
4761	0	30700	32775	
4762	0	31424	32895	
4763	0	31970	33284	
4764	0	32366	32783	
4765	0	32874	33064	
4766	0	33148	32630	
4767	0	33392	32483	
4768	0	33312	32515	
4769	0	33244	32772	
4770	0	33135	33116	
4771	0	33178	32644	
4772	0	33430	32376	
4773	0	33504	32140	
4774	0	33440	32206	
4775	0	33392	32742	
4776	0	33260	32370	
4777	0	32996	32838	
4778	0	32856	32820	
4779	0	32732	32884	
4780	0	32636	32841	
4781	0	32472	33072	
4782	0	32436	32724	
4783	0	32392	33170	
4784	0	32572	33088	
4785	0	32792	33004	
4786	0	32568	33074	
4787	0	32460	33287	
4788	0	32600	32896	
4789	0	32416	32458	
4790	0	32120	32190	
4791	0	31816	32574	
4792	0	31930	32116	
4793	0	31930	32388	
4794	0	31880	32337	
4795	0	31980	32546	
4796	0	32166	33180	
4797	0	32512	33223	
4798	0	33138	32939	
4799	0	33956	32636	
4800	0	34374	32092	
4801	0	34576	32586	
4802	0	34080	32684	
4803	0	33892	33684	
4804	0	33262	33190	
4805	0	33978	33679	
4806	0	34192	32426	
4807	0	34332	32356	
4808	0	33396	32820	
4809	0	32910	32692	
4810	0	33052	32022	
4811	0	33202	31964	
4812	0	32170	32628	
4813	0	31116	32920	
4814	0	30688	33134	
4815	0	31448	33402	
4816	0	31936	34356	
4817	0	32609	33544	
4818	0	33572	32708	
4819	0	34166	32746	
4820	0	34620	32424	
4821	0	34932	31778	
4822	0	34696	31776	
4823	0	34584	33401	
4824	0	33916	32464	
4825	0	33288	32440	
4826	0	31644	32502	
4827	0	31164	32384	
4828	0	31644	32372	
4829	0	32132	33220	
4830	0	32122	33472	
4831	0	32172	33348	
4832	0	32294	33166	
4833	0	32404	32498	
4834	0	32352	32512	
4835	0	32344	32916	
4836	0	32040	33080	
4837	0	31892	32831	
4838	0	31924	32992	
4839	0	32034	33300	
4840	0	32096	33096	
4841	0	32028	32263	
4842	0	32764	31960	
4843	0	32994	32512	
4844	0	33080	33106	
4845	0	33260	33101	
4846	0	33296	33016	
4847	0	33284	32720	
4848	0	33208	32734	
4849	0	33412	32602	
4850	0	33284	32798	
4851	0	33232	32844	
4852	0	32976	33248	
4853	0	32726	32770	
4854	0	32764	31910	
4855	0	32788	32124	
4856	0	32714	32558	
4857	0	32664	32608	
4858	0	32612	32764	
4859	0	32640	32916	
4860	0	32484	32880	
4861	0	32332	32965	
4862	0	32344	32818	
4863	0	32584	32774	
4864	0	32512	32898	
4865	0	32580	32832	
4866	0	32710	32743	
4867	0	32962	32534	
4868	0	32994	32756	
4869	0	32916	32908	
4870	0	32774	33088	
4871	0	32841	32067	
4872	0	32774	31683	
4873	0	32848	32054	
4874	0	32704	32556	
4875	0	32376	32916	
4876	0	31738	33258	
4877	0	32212	33874	
4878	0	33084	33104	
4879	0	33884	33204	
4880	0	34108	33346	
4881	0	33908	33390	
4882	0	33300	33040	
4883	0	33034	32786	
4884	0	32884	32646	
4885	0	32488	32546	
4886	0	32462	32454	
4887	0	32938	32548	
4888	0	33550	32582	
4889	0	33492	32582	
4890	0	32976	32532	
4891	0	32332	32770	
4892	0	32176	32679	
4893	0	32332	32462	
4894	0	31812	32280	
4895	0	31352	32096	
4896	0	30940	32352	
4897	0	30864	32556	
4898	0	31468	33042	
4899	0	33126	33628	
4900	0	34232	32496	
4901	0	34754	31537	
4902	0	34632	31978	
4903	0	33860	32122	
4904	0	34504	33626	
4905	0	34868	33616	
4906	0	34785	34136	
4907	0	34792	33105	
4908	0	34820	33176	
4909	0	34344	32775	
4910	0	34080	33436	
4911	0	33486	32634	
4912	0	32544	32900	
4913	0	31930	32684	
4914	0	31920	32928	
4915	0	32208	33024	
4916	0	32364	33054	
4917	0	32078	33302	
4918	0	31526	33540	
4919	0	31328	33006	
4920	0	31500	32524	
4921	0	31392	32400	
4922	0	31388	32398	
4923	0	31156	32212	
4924	0	31164	32196	
4925	0	31478	32064	
4926	0	31494	32084	
4927	0	31622	32164	
4928	0	32192	32544	
4929	0	32604	32210	
4930	0	33204	32582	
4931	0	33700	32194	
4932	0	33780	32298	
4933	0	33832	32602	
4934	0	33882	32590	
4935	0	33790	33118	
4936	0	33646	33153	
4937	0	33572	33020	
4938	0	33204	32807	
4939	0	32824	32426	
4940	0	32820	32998	
4941	0	32712	33091	
4942	0	32502	33248	
4943	0	32484	33343	
4944	0	32468	33122	
4945	0	32520	33084	
4946	0	32624	33170	
4947	0	32720	33174	
4948	0	32658	33074	
4949	0	32640	33148	
4950	0	33022	33060	
4951	0	33048	32680	
4952	0	33012	32934	
4953	0	33044	32720	
4954	0	33084	32821	
4955	0	33156	32775	
4956	0	32768	32804	
4957	0	32574	32871	
4958	0	32520	32866	
4959	0	32578	32663	
4960	0	32668	32454	
4961	0	32924	32548	
4962	0	33148	32682	
4963	0	33034	32894	
4964	0	32904	32916	
4965	0	33024	32668	
4966	0	32988	32488	
4967	0	32818	32532	
4968	0	32644	32666	
4969	0	32700	32863	
4970	0	32826	32540	
4971	0	32980	32604	
4972	0	32938	32804	
4973	0	32872	32748	
4974	0	32280	33098	
4975	0	31112	32942	
4976	0	30552	32700	
4977	0	30434	32296	
4978	0	31288	31830	
4979	0	32176	31674	
4980	0	32776	32671	
4981	0	33040	32586	
4982	0	33984	32524	
4983	0	34954	33112	
4984	0	35124	33628	
4985	0	35028	33692	
4986	0	34736	33658	
4987	0	34526	32958	
4988	0	34874	32664	
4989	0	35072	33094	
4990	0	34816	32878	
4991	0	34046	32466	
4992	0	33208	32714	
4993	0	32560	32442	
4994	0	31720	32560	
4995	0	31276	32516	
4996	0	31436	32742	
4997	0	31268	32634	
4998	0	31540	32812	
4999	0	31926	33144	
5000	0	31972	33268	
5001	0	31876	32839	
5002	0	31932	32938	
5003	0	31588	32494	
5004	0	31366	31822	
5005	0	31410	31972	
5006	0	31272	32252	
5007	0	31116	32132	
5008	0	31550	32095	
5009	0	32644	32344	
5010	0	33518	33698	
5011	0	34468	34740	
5012	0	34878	34248	
5013	0	34832	33422	
5014	0	34738	33068	
5015	0	34668	32660	
5016	0	34116	32672	
5017	0	33880	32510	
5018	0	33640	32472	
5019	0	33316	32322	
5020	0	32906	32378	
5021	0	32548	32386	
5022	0	32396	32296	
5023	0	32238	32482	
5024	0	32007	32516	
5025	0	32072	32388	
5026	0	32144	32607	
5027	0	32124	32784	
5028	0	32128	32734	
5029	0	32188	33084	
5030	0	32266	32858	
5031	0	32354	32850	
5032	0	32634	32922	
5033	0	32628	32764	
5034	0	32644	32844	
5035	0	32676	32732	
5036	0	32720	32566	
5037	0	32804	32764	
5038	0	32654	32834	
5039	0	32558	32934	
5040	0	32692	33114	
5041	0	33012	32775	
5042	0	32932	32620	
5043	0	33006	32548	
5044	0	32804	32849	
5045	0	32670	32666	
5046	0	32660	32664	
5047	0	32872	32868	
5048	0	33124	32775	
5049	0	32904	32850	
5050	0	33088	32709	
5051	0	33232	32775	
5052	0	33088	32752	
5053	0	32784	32642	
5054	0	32796	32684	
5055	0	32932	33090	
5056	0	32762	32478	
5057	0	32418	32104	
5058	0	32216	32775	
5059	0	32098	32688	
5060	0	31908	33118	
5061	0	32372	33108	
5062	0	32368	33543	
5063	0	32468	33370	
5064	0	32764	32428	
5065	0	33052	32263	
5066	0	33376	32166	
5067	0	33604	31812	
5068	0	33996	32006	
5069	0	33990	32808	
5070	0	33538	32990	
5071	0	33680	33178	
5072	0	34214	33716	
5073	0	34218	33492	
5074	0	33356	33351	
5075	0	32276	33134	
5076	0	32112	33199	
5077	0	31932	32540	
5078	0	31972	32273	
5079	0	31824	32450	
5080	0	31764	32304	
5081	0	30968	32056	
5082	0	30588	32335	
5083	0	31456	32208	
5084	0	32484	31706	
5085	0	33292	31751	
5086	0	33600	33220	
5087	0	33420	33560	
5088	0	33604	33415	
5089	0	34472	33532	
5090	0	34832	33430	
5091	0	34964	33204	
5092	0	34772	33076	
5093	0	34488	33207	
5094	0	34340	32892	
5095	0	33860	32796	
5096	0	33396	32756	
5097	0	32840	32726	
5098	0	32360	32640	
5099	0	31978	32494	
5100	0	31624	32432	
5101	0	31476	32488	
5102	0	31482	32554	
5103	0	31612	32564	
5104	0	31408	32425	
5105	0	31490	32422	
5106	0	31718	32754	
5107	0	31988	32702	
5108	0	32168	32818	
5109	0	32344	32832	
5110	0	32636	32860	
5111	0	32766	32958	
5112	0	32902	32922	
5113	0	32912	32724	
5114	0	32922	32896	
5115	0	32924	32727	
5116	0	32864	32574	
5117	0	32912	32670	
5118	0	33120	32660	
5119	0	33116	32573	
5120	0	32964	32689	
5121	0	32969	32940	
5122	0	33108	32928	
5123	0	32936	32679	
5124	0	32824	32962	
5125	0	32728	33196	
5126	0	32646	33091	
5127	0	32536	33008	
5128	0	32592	32962	
5129	0	33012	32868	
5130	0	33100	32999	
5131	0	32976	32954	
5132	0	33044	32730	
5133	0	33004	32682	
5134	0	32652	32746	
5135	0	32356	32426	
5136	0	31800	32415	
5137	0	31580	32199	
5138	0	32098	32254	
5139	0	32488	32400	
5140	0	32744	32775	
5141	0	33340	33206	
5142	0	33676	32884	
5143	0	33554	32608	
5144	0	33746	32924	
5145	0	33552	32672	
5146	0	33128	32263	
5147	0	32908	32263	
5148	0	32976	32422	
5149	0	33172	32903	
5150	0	33536	33084	
5151	0	33448	33415	
5152	0	33222	32818	
5153	0	33206	32794	
5154	0	33388	32748	
5155	0	33480	32826	
5156	0	33138	32694	
5157	0	33108	32436	
5158	0	33080	32500	
5159	0	32920	32796	
5160	0	32920	32740	
5161	0	32802	32748	
5162	0	32900	32956	
5163	0	32704	33287	
5164	0	32452	33210	
5165	0	32440	33006	
5166	0	32060	33024	
5167	0	31519	32865	
5168	0	31648	32700	
5169	0	31584	32938	
5170	0	31722	32826	
5171	0	31904	32631	
5172	0	32344	32800	
5173	0	32684	32615	
5174	0	32788	32612	
5175	0	32820	32700	
5176	0	33196	32596	
5177	0	33636	32591	
5178	0	33648	32774	
5179	0	33596	32860	
5180	0	33652	33054	
5181	0	33428	32879	
5182	0	33008	32848	
5183	0	32774	32966	
5184	0	32644	32878	
5185	0	32652	32815	
5186	0	32814	32810	
5187	0	32970	32736	
5188	0	32796	32770	
5189	0	32740	32740	
5190	0	32558	32687	
5191	0	32600	32794	
5192	0	32700	32727	
5193	0	32600	32788	
5194	0	32638	32830	
5195	0	32748	32775	
5196	0	32734	32571	
5197	0	32854	32846	
5198	0	32644	32864	
5199	0	32328	32775	
5200	0	32344	32871	
5201	0	32642	32884	
5202	0	32762	32940	
5203	0	32868	32720	
5204	0	33018	32700	
5205	0	33200	32574	
5206	0	33292	32654	
5207	0	33214	32470	
5208	0	33016	32601	
5209	0	33058	32758	
5210	0	32944	32623	
5211	0	32840	32718	
5212	0	32656	32831	
5213	0	32506	32704	
5214	0	32264	33110	
5215	0	32458	32836	
5216	0	32628	32983	
5217	0	32778	32722	
5218	0	32964	32748	
5219	0	33060	32708	
5220	0	32764	32622	
5221	0	32512	32662	
5222	0	32398	32692	
5223	0	32584	32746	
5224	0	32624	32682	
5225	0	32636	32774	
5226	0	32660	32784	
5227	0	32740	32683	
5228	0	32580	32628	
5229	0	32976	32832	
5230	0	33109	32910	
5231	0	33048	32890	
5232	0	33067	32878	
5233	0	33216	32874	
5234	0	33232	32903	
5235	0	33258	32790	
5236	0	33240	32800	
5237	0	33476	32644	
5238	0	33316	32660	
5239	0	33318	32826	
5240	0	33452	32690	
5241	0	33232	32614	
5242	0	32838	32943	
5243	0	32468	32996	
5244	0	32226	33190	
5245	0	32212	32825	
5246	0	32138	32664	
5247	0	31744	32834	
5248	0	30716	32592	
5249	0	30614	32428	
5250	0	31068	32062	
5251	0	31132	31962	
5252	0	31620	32627	
5253	0	32770	32106	
5254	0	34090	32758	
5255	0	34828	33530	
5256	0	35304	33124	
5257	0	35540	33304	
5258	0	35456	33674	
5259	0	35260	33742	
5260	0	34780	33348	
5261	0	34216	33182	
5262	0	33516	32750	
5263	0	33224	32506	
5264	0	32716	32623	
5265	0	32552	32600	
5266	0	32274	32607	
5267	0	31804	32478	
5268	0	31698	32542	
5269	0	31636	32582	
5270	0	31882	32468	
5271	0	32000	32452	
5272	0	31936	32505	
5273	0	31972	32564	
5274	0	31945	32750	
5275	0	31982	32806	
5276	0	32044	32986	
5277	0	32046	33062	
5278	0	32072	32839	
5279	0	32300	32604	
5280	0	32650	32359	
5281	0	32836	32532	
5282	0	32784	32583	
5283	0	32952	32694	
5284	0	33020	32490	
5285	0	33008	32766	
5286	0	33036	32751	
5287	0	33207	32630	
5288	0	33252	32612	
5289	0	33272	32800	
5290	0	33354	32764	
5291	0	33113	32822	
5292	0	32736	32810	
5293	0	32838	32912	
5294	0	32764	32978	
5295	0	32890	33270	
5296	0	33132	33382	
5297	0	32852	32961	
5298	0	32588	33028	
5299	0	32712	33236	
5300	0	32804	33088	
5301	0	32960	32697	
5302	0	32888	32472	
5303	0	32738	32422	
5304	0	32746	32550	
5305	0	32764	32263	
5306	0	32664	32412	
5307	0	32676	32380	
5308	0	32880	32226	
5309	0	32724	32400	
5310	0	32848	32468	
5311	0	32692	32566	
5312	0	32724	32542	
5313	0	32804	32679	
5314	0	32754	32734	
5315	0	32844	32738	
5316	0	32832	32798	
5317	0	32772	32894	
5318	0	32708	32990	
5319	0	32876	33054	
5320	0	32984	32996	
5321	0	33004	32670	
5322	0	32968	32726	
5323	0	33040	32862	
5324	0	33214	32716	
5325	0	33088	32759	
5326	0	32984	32858	
5327	0	32880	32735	
5328	0	32612	32848	
5329	0	32646	32903	
5330	0	32843	32762	
5331	0	32904	32938	
5332	0	32744	32986	
5333	0	32676	32884	
5334	0	32394	33052	
5335	0	32142	32855	
5336	0	31892	32714	
5337	0	31976	32775	
5338	0	32284	32817	
5339	0	32728	32710	
5340	0	32924	32762	
5341	0	32952	32826	
5342	0	33186	32774	
5343	0	33276	32684	
5344	0	33498	32660	
5345	0	33416	32719	
5346	0	33592	32854	
5347	0	33468	32874	
5348	0	33560	32694	
5349	0	33552	32738	
5350	0	33604	32636	
5351	0	33508	32590	
5352	0	33188	32624	
5353	0	32840	32846	
5354	0	32576	32956	
5355	0	32372	32815	
5356	0	32388	32964	
5357	0	32242	32926	
5358	0	32246	32743	
5359	0	32356	32590	
5360	0	32584	32494	
5361	0	32418	32627	
5362	0	32358	32842	
5363	0	32328	32924	
5364	0	32328	32860	
5365	0	32404	32870	
5366	0	32316	33008	
5367	0	31720	32930	
5368	0	31024	32800	
5369	0	30856	32716	
5370	0	31534	32564	
5371	0	32592	32658	
5372	0	33572	32678	
5373	0	34394	32848	
5374	0	34914	32753	
5375	0	35316	32808	
5376	0	35052	32838	
5377	0	34552	32740	
5378	0	34228	32656	
5379	0	34048	32720	
5380	0	33566	32718	
5381	0	33000	32679	
5382	0	32792	32714	
5383	0	32616	32604	
5384	0	32422	32876	
5385	0	32257	32967	
5386	0	32288	32774	
5387	0	31905	32748	
5388	0	31648	32634	
5389	0	32020	32604	
5390	0	32278	32378	
5391	0	32304	32792	
5392	0	32348	32839	
5393	0	32468	32724	
5394	0	32292	32826	
5395	0	32286	32924	
5396	0	32440	32694	
5397	0	32692	32658	
5398	0	32830	32666	
5399	0	32848	32512	
5400	0	32734	32593	
5401	0	32598	32515	
5402	0	32653	32519	
5403	0	32794	32742	
5404	0	32840	32982	
5405	0	32860	32884	
5406	0	32873	32918	
5407	0	32936	32860	
5408	0	32960	32942	
5409	0	32944	32800	
5410	0	32758	32839	
5411	0	32890	32954	
5412	0	32936	32830	
5413	0	32728	32860	
5414	0	32552	33002	
5415	0	32556	32879	
5416	0	32968	32722	
5417	0	33482	32766	
5418	0	33656	32674	
5419	0	33550	32967	
5420	0	33172	32831	
5421	0	32826	32588	
5422	0	32796	32666	
5423	0	32948	32702	
5424	0	33110	32696	
5425	0	32912	32588	
5426	0	32632	32790	
5427	0	32384	32804	
5428	0	32236	32834	
5429	0	32268	32932	
5430	0	32436	32988	
5431	0	32676	32838	
5432	0	32708	32820	
5433	0	32693	32765	
5434	0	32644	32767	
5435	0	32564	32440	
5436	0	32734	32484	
5437	0	32706	32382	
5438	0	32652	32606	
5439	0	32876	32519	
5440	0	32906	32703	
5441	0	32840	32686	
5442	0	32864	32858	
5443	0	32948	32710	
5444	0	32871	32456	
5445	0	32896	32360	
5446	0	32896	32390	
5447	0	32868	32559	
5448	0	32996	32791	
5449	0	32902	32732	
5450	0	32934	32538	
5451	0	32872	32838	
5452	0	32888	33132	
5453	0	33046	33122	
5454	0	33088	33058	
5455	0	33052	32848	
5456	0	32710	32726	
5457	0	32446	32844	
5458	0	32343	32928	
5459	0	32352	32884	
5460	0	32642	32950	
5461	0	32934	32912	
5462	0	33084	33026	
5463	0	33198	32825	
5464	0	33188	32936	
5465	0	33120	33150	
5466	0	33076	32806	
5467	0	32968	32619	
5468	0	32780	32686	
5469	0	32544	32775	
5470	0	32722	32736	
5471	0	32816	32684	
5472	0	32924	32690	
5473	0	32804	32886	
5474	0	32806	32724	
5475	0	32836	32286	
5476	0	32832	32447	
5477	0	32802	32718	
5478	0	32692	32757	
5479	0	32750	32783	
5480	0	32628	33031	
5481	0	32604	32822	
5482	0	32542	32862	
5483	0	32610	32790	
5484	0	32676	32730	
5485	0	32896	32810	
5486	0	32976	32839	
5487	0	33088	32752	
5488	0	33124	32903	
5489	0	33076	32799	
5490	0	33108	32660	
5491	0	33012	32694	
5492	0	33004	32830	
5493	0	32842	32775	
5494	0	32784	32924	
5495	0	32672	32871	
5496	0	32628	32878	
5497	0	32708	32854	
5498	0	32644	32828	
5499	0	32680	32756	
5500	0	32706	32753	
5501	0	32834	32596	
5502	0	32900	32734	
5503	0	32878	32622	
5504	0	32968	32590	
5505	0	32906	32814	
5506	0	32740	32767	
5507	0	32734	32852	
5508	0	32656	32890	
5509	0	32812	32848	
5510	0	32680	32674	
5511	0	32722	32762	
5512	0	32852	32732	
5513	0	32928	32800	
5514	0	32926	32795	
5515	0	32956	32854	
5516	0	32880	32724	
5517	0	32804	32775	
5518	0	32664	32691	
5519	0	32618	32775	
5520	0	32712	32682	
5521	0	32868	32848	
5522	0	32612	32967	
5523	0	32752	32792	
5524	0	32964	32303	
5525	0	33068	32528	
5526	0	32984	32634	
5527	0	32744	32542	
5528	0	32754	32686	
5529	0	32742	32646	
5530	0	32710	32578	
5531	0	32676	32774	
5532	0	32644	32820	
5533	0	32702	32940	
5534	0	32704	33168	
5535	0	32720	33218	
5536	0	32772	33122	
5537	0	32826	33101	
5538	0	32848	32957	
5539	0	32888	32588	
5540	0	32928	32644	
5541	0	32936	32812	
5542	0	32912	32598	
5543	0	32812	32404	
5544	0	32740	32647	
5545	0	32840	32810	
5546	0	32854	32704	
5547	0	32880	32932	
5548	0	32770	32743	
5549	0	32772	32484	
5550	0	32732	32282	
5551	0	32802	32444	
5552	0	32808	32772	
5553	0	32808	32700	
5554	0	32874	32856	
5555	0	32874	32708	
5556	0	32752	32784	
5557	0	32564	32903	
5558	0	32660	32882	
5559	0	32708	32812	
5560	0	32636	32792	
5561	0	32804	33022	
5562	0	32888	32999	
5563	0	32996	32720	
5564	0	32948	32770	
5565	0	32968	32682	
5566	0	33048	32610	
5567	0	33012	32630	
5568	0	33064	32794	
5569	0	32850	32996	
5570	0	32802	32984	
5571	0	32826	32948	
5572	0	32806	32956	
5573	0	32768	32774	
5574	0	32760	32804	
5575	0	32772	32798	
5576	0	32762	32671	
5577	0	32832	32647	
5578	0	32744	32600	
5579	0	32720	32810	
5580	0	32692	32463	
5581	0	32764	32386	
5582	0	32818	32478	
5583	0	32794	32692	
5584	0	32800	32756	
5585	0	32750	32854	
5586	0	32644	33030	
5587	0	32642	32874	
5588	0	32812	32818	
5589	0	32920	32775	
5590	0	33042	32806	
5591	0	32878	32840	
5592	0	32860	32830	
5593	0	32860	32832	
5594	0	32768	32980	
5595	0	32792	32935	
5596	0	32950	32622	
5597	0	32984	32603	
5598	0	32886	32660	
5599	0	32816	32679	
5600	0	32678	32766	
5601	0	32732	32732	
5602	0	32824	33106	
5603	0	32916	33031	
5604	0	33009	32679	
5605	0	32970	32312	
5606	0	32818	32079	
5607	0	32814	32450	
5608	0	32660	32784	
5609	0	32598	32994	
5610	0	32696	32758	
5611	0	32740	32816	
5612	0	32873	32846	
5613	0	32780	32842	
5614	0	32744	32872	
5615	0	32704	32914	
5616	0	32640	32860	
5617	0	32584	32860	
5618	0	32750	32932	
5619	0	32924	32928	
5620	0	32840	32784	
5621	0	32880	32474	
5622	0	32870	32504	
5623	0	32840	32679	
5624	0	32862	32684	
5625	0	32896	32718	
5626	0	32900	32704	
5627	0	32802	32967	
5628	0	32834	32860	
5629	0	32792	32743	
5630	0	32820	32855	
5631	0	32772	32988	
5632	0	32864	32772	
5633	0	32780	32650	
5634	0	32806	32660	
5635	0	32892	32708	
5636	0	32852	32808	
5637	0	32818	32974	
5638	0	32836	32756	
5639	0	32784	32902	
5640	0	32900	32759	
5641	0	32936	32903	
5642	0	32844	32792	
5643	0	32800	32736	
5644	0	32772	32376	
5645	0	32856	32504	
5646	0	32894	32436	
5647	0	32692	32640	
5648	0	32764	32728	
5649	0	32700	32543	
5650	0	32766	32647	
5651	0	32834	32928	
5652	0	32776	32916	
5653	0	32762	32756	
5654	0	32772	32799	
5655	0	32760	32898	
5656	0	32792	32834	
5657	0	32756	32935	
5658	0	32798	32774	
5659	0	32709	32862	
5660	0	32770	32884	
5661	0	32838	32885	
5662	0	32864	32999	
5663	0	32818	32917	
5664	0	32822	32858	
5665	0	32784	32644	
5666	0	32764	32544	
5667	0	32828	32784	
5668	0	32864	32823	
5669	0	33064	32742	
5670	0	32776	32836	
5671	0	32684	32631	
5672	0	32980	32652	
5673	0	32964	32806	
5674	0	32916	32874	
5675	0	32848	32986	
5676	0	32788	32820	
5677	0	32702	32874	
5678	0	32644	32870	
5679	0	32602	32654	
5680	0	32728	32704	
5681	0	32694	32722	
5682	0	32712	32606	
5683	0	32664	32818	
5684	0	32716	33003	
5685	0	32800	33126	
5686	0	32790	32978	
5687	0	32816	32596	
5688	0	32820	32359	
5689	0	32930	32554	
5690	0	32924	32593	
5691	0	32808	32492	
5692	0	32744	32678	
5693	0	32904	32575	
5694	0	32794	32886	
5695	0	32714	32812	
5696	0	32760	32772	
5697	0	32780	32746	
5698	0	32776	32852	
5699	0	32756	32936	
5700	0	32988	32690	
5701	0	32890	32939	
5702	0	32884	33031	
5703	0	32892	32944	
5704	0	32876	32864	
5705	0	32756	32750	
5706	0	32640	32746	
5707	0	32732	32598	
5708	0	32800	32280	
5709	0	32686	32302	
5710	0	32648	32506	
5711	0	32580	32836	
5712	0	32566	32703	
5713	0	32616	32604	
5714	0	32774	32412	
5715	0	32832	32472	
5716	0	32776	32595	
5717	0	32938	32551	
5718	0	33052	32750	
5719	0	32990	32951	
5720	0	33008	32992	
5721	0	33012	32882	
5722	0	32952	33031	
5723	0	32880	33094	
5724	0	33000	33274	
5725	0	33024	33286	
5726	0	33044	33460	
5727	0	32804	33482	
5728	0	32900	33426	
5729	0	33128	33048	
5730	0	33250	32834	
5731	0	33028	32800	
5732	0	33072	32818	
5733	0	32952	32756	
5734	0	32714	32858	
5735	0	32572	32934	
5736	0	32574	32478	
5737	0	32560	32526	
5738	0	32536	32335	
5739	0	32530	32482	
5740	0	32574	32288	
5741	0	32620	32399	
5742	0	32620	32420	
5743	0	32708	32356	
5744	0	32736	32498	
5745	0	32932	32587	
5746	0	32796	32518	
5747	0	32824	32659	
5748	0	32772	32654	
5749	0	32593	32751	
5750	0	33054	32700	
5751	0	33116	32898	
5752	0	33260	32902	
5753	0	33194	32868	
5754	0	33132	32774	
5755	0	33062	32746	
5756	0	32808	32638	
5757	0	32884	32812	
5758	0	32600	32933	
5759	0	32576	32743	
5760	0	32516	32860	
5761	0	32554	32792	
5762	0	32584	32852	
5763	0	32528	32844	
5764	0	32634	32764	
5765	0	32728	32815	
5766	0	32718	32734	
5767	0	32808	32814	
5768	0	32872	32792	
5769	0	32882	32726	
5770	0	32900	32746	
5771	0	32899	32750	
5772	0	32852	32802	
5773	0	32942	32951	
5774	0	32846	33022	
5775	0	32784	32874	
5776	0	32844	32767	
5777	0	32860	32542	
5778	0	32886	32652	
5779	0	32794	32628	
5780	0	32852	32903	
5781	0	32868	32710	
5782	0	32860	32662	
5783	0	32924	32580	
5784	0	32804	32684	
5785	0	32928	32628	
5786	0	33022	32583	
5787	0	32954	32789	
5788	0	32800	32882	
5789	0	32760	32895	
5790	0	32760	32924	
5791	0	32808	32834	
5792	0	32776	32697	
5793	0	32784	32636	
5794	0	32700	32806	
5795	0	32736	32758	
5796	0	32792	32782	
5797	0	32794	32916	
5798	0	32806	32830	
5799	0	32832	32847	
5800	0	32878	32855	
5801	0	32844	32860	
5802	0	32764	32570	
5803	0	32774	32632	
5804	0	32760	32660	
5805	0	32804	32636	
5806	0	32688	32629	
5807	0	32720	32647	
5808	0	32768	32828	
5809	0	32620	32806	
5810	0	32692	32958	
5811	0	32780	32724	
5812	0	32834	32758	
5813	0	33124	32704	
5814	0	33000	32672	
5815	0	32792	32775	
5816	0	32896	32692	
5817	0	32956	32808	
5818	0	32852	32822	
5819	0	32802	32788	
5820	0	32820	32894	
5821	0	32892	32786	
5822	0	32880	32708	
5823	0	32760	32903	
5824	0	32712	32871	
5825	0	32648	32660	
5826	0	32680	32636	
5827	0	32740	32616	
5828	0	32752	32590	
5829	0	32708	32756	
5830	0	32836	32823	
5831	0	32768	32628	
5832	0	32660	32588	
5833	0	32802	32724	
5834	0	32796	32798	
5835	0	32836	32863	
5836	0	33000	32843	
5837	0	33248	32916	
5838	0	33326	33038	
5839	0	32896	32998	
5840	0	32620	32948	
5841	0	32512	32944	
5842	0	32794	32956	
5843	0	32888	32746	
5844	0	32762	32718	
5845	0	32724	32710	
5846	0	32692	32732	
5847	0	32748	32602	
5848	0	32706	32647	
5849	0	32696	32768	
5850	0	32700	32704	
5851	0	32641	32615	
5852	0	32724	32566	
5853	0	32792	32679	
5854	0	32800	32774	
5855	0	32768	32623	
5856	0	32916	32761	
5857	0	32908	32708	
5858	0	32892	32859	
5859	0	32896	32790	
5860	0	32932	32580	
5861	0	32844	32610	
5862	0	32888	32660	
5863	0	32896	32864	
5864	0	32868	32864	
5865	0	32940	32720	
5866	0	32874	32740	
5867	0	32852	32855	
5868	0	32824	32808	
5869	0	32810	32951	
5870	0	32774	32866	
5871	0	32752	32832	
5872	0	32844	32926	
5873	0	32860	32750	
5874	0	32870	32910	
5875	0	32748	32883	
5876	0	32794	32830	
5877	0	32776	32868	
5878	0	32804	32884	
5879	0	32868	32692	
5880	0	32912	32575	
5881	0	32913	32752	
5882	0	32904	32738	
5883	0	32792	32807	
5884	0	32618	32932	
5885	0	32704	32852	
5886	0	32766	32670	
5887	0	32788	32500	
5888	0	32644	32583	
5889	0	32640	32722	
5890	0	32754	32632	
5891	0	32812	32458	
5892	0	32862	32412	
5893	0	32840	32516	
5894	0	32938	32624	
5895	0	32822	32788	
5896	0	32612	32807	
5897	0	32684	32796	
5898	0	32686	32922	
5899	0	32680	32871	
5900	0	32720	32775	
5901	0	32810	32894	
5902	0	32730	32828	
5903	0	32772	32932	
5904	0	33060	32836	
5905	0	33424	32882	
5906	0	33401	33000	
5907	0	33312	32794	
5908	0	32996	32708	
5909	0	32828	32633	
5910	0	32624	32590	
5911	0	32612	32836	
5912	0	32662	32802	
5913	0	32700	32629	
5914	0	32786	32665	
5915	0	32849	32324	
5916	0	32544	32639	
5917	0	32638	32716	
5918	0	32590	32558	
5919	0	32342	32770	
5920	0	32372	32775	
5921	0	32504	32596	
5922	0	32584	32735	
5923	0	32758	32760	
5924	0	32838	32644	
5925	0	32757	32884	
5926	0	32896	32830	
5927	0	32858	32708	
5928	0	32984	32788	
5929	0	32976	32838	
5930	0	32988	32743	
5931	0	32908	32880	
5932	0	32932	32936	
5933	0	32944	32799	
5934	0	32952	32722	
5935	0	32988	32738	
5936	0	32848	32841	
5937	0	32930	32858	
5938	0	32842	32930	
5939	0	32808	32794	
5940	0	32820	32948	
5941	0	32884	32806	
5942	0	32772	32730	
5943	0	32828	32820	
5944	0	32836	32752	
5945	0	32840	32762	
5946	0	32780	32848	
5947	0	32840	32775	
5948	0	32828	32920	
5949	0	32768	32903	
5950	0	32872	32788	
5951	0	32854	32758	
5952	0	32836	32810	
5953	0	32868	32864	
5954	0	32848	32903	
5955	0	32806	32812	
5956	0	32808	32762	
5957	0	32844	32708	
5958	0	32782	32806	
5959	0	32800	32892	
5960	0	32816	32884	
5961	0	32834	32932	
5962	0	32904	32980	
5963	0	32812	33002	
5964	0	32700	32775	
5965	0	32812	32828	
5966	0	32816	33038	
5967	0	32964	33031	
5968	0	33004	32900	
5969	0	32772	32674	
5970	0	32516	32845	
5971	0	32548	32743	
5972	0	32894	32558	
5973	0	32964	32620	
5974	0	33188	32454	
5975	0	33176	32586	
5976	0	33012	32518	
5977	0	32900	32304	
5978	0	32746	32350	
5979	0	32568	32284	
5980	0	32592	32383	
5981	0	32616	32372	
5982	0	32624	32348	
5983	0	32744	32490	
5984	0	32786	32666	
5985	0	32750	32738	
5986	0	32640	32990	
5987	0	32644	32999	
5988	0	32740	32963	
5989	0	32850	32652	
5990	0	32876	32688	
5991	0	33104	32838	
5992	0	32856	32916	
5993	0	32910	33040	
5994	0	32940	32940	
5995	0	32904	32932	
5996	0	32878	33140	
5997	0	32864	33265	
5998	0	32784	33156	
5999	0	32632	32966	
6000	0	32702	32647	
6001	0	32640	32630	
6002	0	32688	32900	
6003	0	32724	32942	
6004	0	32780	32820	
6005	0	32692	32831	
6006	0	32692	32600	
6007	0	32860	32598	
6008	0	32840	32800	
6009	0	32892	32636	
6010	0	32836	32711	
6011	0	32786	32658	
6012	0	32842	32682	
